0,3
8,5113
8,2599
11,1837
14,2744
16,1220
19,2161
19,6119
20,6063
21,831
27,3854
27,4551
29,909
30,2744
33,19
33,1306
33,2161
36,4922
40,4204
40,4329
40,4035
41,2273
41,2033
41,3907
41,1513
41,5363
41,5148
42,1489
43,2076
43,5147
43,1277
43,2725
43,1639
45,3262
47,6706
53,4091
53,6354
53,904
54,2554
54,1728
59,4987
60,6594
60,5898
60,2647
61,6365
61,2599
61,5463
63,2636
63,3764
66,6646
67,4264
68,5067
73,6256
73,1540
73,1689
73,2577
73,3539
75,866
75,5730
75,5994
79,1690
79,6494
79,4100
80,2336
80,981
81,3585
86,2215
88,3073
88,3381
90,2972
91,5621
92,3381
93,5172
93,2932
93,3703
93,5170
95,4513
95,4341
95,6530
95,1653
95,4721
95,3803
95,2842
95,6463
95,2463
97,4911
97,4626
97,2309
97,4477
98,6595
100,4436
100,3403
101,2364
101,4241
101,4070
103,3923
103,6129
104,6225
104,5459
106,1430
106,4506
108,1183
109,1186
110,2145
110,1345
110,6298
110,3379
110,5953
111,1198
111,1775
112,3727
115,3582
115,1780
121,5708
121,4374
123,2456
123,4293
124,4383
124,2019
125,2717
126,2510
127,2529
129,4335
129,3161
129,744
129,6873
131,7693
132,4504
134,6661
137,1098
137,3490
139,1544
139,2529
139,2205
139,5661
139,2024
141,3212
142,912
142,4058
143,5384
144,3484
145,2940
147,1269
150,951
150,4366
153,5001
154,4905
156,929
156,5048
156,5999
158,1764
161,227
162,3049
162,5999
162,5865
164,835
170,5999
170,3088
172,1240
173,5093
178,2728
180,4536
186,6377
189,4864
191,6732
196,2742
200,3520
202,4563
205,6872
207,2419
207,4393
207,2304
208,2636
209,5070
210,475
218,4348
222,1650
222,601
223,4536
229,1245
239,3293
239,5672
239,4890
239,3273
242,4624
242,4362
248,4405
250,1809
254,5082
254,3843
257,7253
258,4444
260,3296
277,4864
282,6044
283,6242
288,4950
289,2778
292,2343
294,982
294,3064
294,4419
298,5903
298,6101
298,6143
300,7396
300,1868
300,6006
302,6567
302,2657
304,1300
307,1477
307,1324
307,4310
307,4203
307,207
307,4313
307,334
307,5810
307,1423
307,1610
307,3770
308,397
308,5354
308,4568
308,5005
308,1601
309,3088
312,3088
312,5819
314,5367
318,5591
321,7045
325,276
325,1824
326,653
326,1323
326,7270
329,4058
335,2529
335,889
338,6607
343,6472
353,2420
353,5216
369,1918
369,984
369,5870
369,4128
369,4264
373,1710
373,5158
377,1035
377,5999
377,5296
378,1041
379,5588
379,594
379,1911
379,6148
380,6587
384,3031
384,3669
385,3488
389,829
390,2023
390,3414
392,1254
393,4153
393,5470
398,4954
399,1645
399,3513
400,1426
401,4369
404,5853
404,3064
405,1035
405,1650
406,6938
406,4962
408,395
411,2432
411,2636
411,208
414,1149
416,5191
418,4373
419,2268
419,1381
421,234
421,2437
428,744
430,4323
433,5584
433,4933
434,3725
441,6323
441,969
441,5888
441,6466
444,4219
444,4943
444,5295
444,4052
444,5770
444,990
444,681
444,3765
444,2449
444,673
445,4892
446,6155
446,1826
446,4791
446,4688
447,5320
449,4959
449,403
449,2339
449,2387
449,7485
450,4693
450,5359
450,2749
451,6256
451,1540
451,2577
451,3539
451,5027
455,2916
455,4029
455,3027
456,7401
456,1907
457,3293
457,4890
457,1329
457,5672
457,2814
459,1907
460,1187
461,3232
461,1980
461,4759
462,5051
462,3788
463,217
463,1009
463,626
463,4373
463,757
466,3163
469,2095
469,3231
469,5828
469,2681
469,4835
471,2781
472,4148
473,7406
474,5732
480,339
484,5308
486,816
486,1341
489,5864
494,4062
494,6649
496,4565
500,1043
500,6987
500,764
503,4209
503,2076
503,5736
506,226
507,6463
507,1093
507,1814
507,1272
507,3365
507,4721
507,1653
507,2947
507,4513
507,1355
507,170
507,5296
507,4372
508,2589
509,1196
509,6356
509,4176
511,3954
515,4173
515,5468
521,4759
521,2696
521,4162
521,651
521,6964
521,5950
521,3417
524,4045
524,9913
524,4548
525,7045
526,1249
530,4797
530,3909
530,5496
531,6808
531,1618
533,6508
533,1491
533,4481
533,1624
533,985
534,1650
534,222
535,3200
535,1189
535,5802
535,978
538,6627
538,3907
538,817
539,5799
539,7161
539,8531
539,9017
539,5628
539,1340
540,2563
542,3595
544,5571
545,4586
546,5472
547,6729
547,6805
547,1972
550,4954
550,2072
554,5379
554,2099
556,2574
556,2262
557,6459
557,1035
557,5778
557,6591
557,6510
560,2722
565,2958
568,2085
570,3492
575,3421
579,2709
579,734
580,2121
581,5569
582,1739
584,2400
584,1445
584,3105
593,1847
593,4237
597,4212
598,4399
600,3378
600,5194
600,3606
606,4390
606,6627
606,3769
611,820
612,2636
614,2276
622,4119
626,1728
626,3289
626,1826
628,6350
629,4168
631,2780
632,4321
641,3716
647,3088
651,4491
651,5950
651,5923
654,6004
655,555
656,3901
658,4431
659,3756
660,2965
662,3095
662,929
662,5296
662,6463
662,4343
662,4513
663,4219
663,2432
663,673
665,3713
669,1260
670,4477
671,5291
672,4922
672,1549
672,3857
673,2449
674,3051
676,4198
677,6251
677,6552
678,1309
678,6332
678,4663
681,2449
682,4164
682,5182
682,4192
686,1653
686,3240
686,6463
686,4513
686,2842
686,3803
686,2463
686,4721
689,5864
689,5739
689,338
697,6090
701,3319
701,5070
704,4864
706,4398
706,6323
716,2657
716,2872
720,6459
722,2677
724,3309
724,1244
725,6654
731,2061
731,5019
733,5888
736,6017
745,4864
748,2141
748,2784
748,720
748,6536
755,5955
755,1170
756,1301
756,1940
757,4217
757,1009
761,1297
763,3088
765,2403
765,249
766,4911
766,2826
766,5816
771,3204
772,366
773,1826
779,1943
789,4709
790,6450
790,7428
790,6362
792,5811
793,1217
793,5799
793,6364
793,1810
793,1340
793,1848
793,4176
793,5628
793,2900
800,963
800,2927
806,1826
806,3907
806,1513
806,5148
806,2033
807,4435
818,3862
818,4347
818,4164
818,4032
820,5743
824,1391
825,1846
825,2745
827,1000
829,3243
829,3722
830,1338
830,4853
830,3019
831,744
834,6537
842,270
848,5426
848,3857
850,4513
850,5853
850,3803
850,5557
850,2463
850,2842
850,5048
850,6463
856,588
856,5973
856,6355
861,6304
864,1571
864,4154
864,4176
864,6356
866,4822
867,4726
870,4629
877,2492
878,923
881,4011
883,3234
883,2085
889,2529
890,5134
897,1768
897,6413
899,2933
899,2309
904,3899
907,4884
908,979
909,5405
909,6567
909,5145
918,784
918,1988
921,6197
922,4778
922,6587
924,6546
925,6425
928,5591
929,1355
929,1814
929,5999
930,3867
930,3386
930,1485
930,1860
935,2353
935,5740
939,2552
939,3455
939,601
946,2318
948,2196
953,3409
954,6334
957,2017
963,3075
963,2689
963,5032
963,2545
968,3674
968,3148
970,4887
973,5303
976,170
976,1355
976,1272
976,6554
978,1189
979,908
980,3591
980,4362
980,2805
981,2638
981,2336
981,3923
982,637
982,6298
983,3116
983,4624
990,2432
990,5888
1004,2487
1005,2968
1011,2054
1012,3674
1012,3148
1015,5490
1015,2817
1015,3899
1018,1369
1019,3261
1020,7384
1022,818
1022,682
1026,3918
1035,6398
1035,2938
1035,162
1035,5999
1036,3175
1036,1202
1036,5628
1039,4027
1041,3135
1047,701
1049,1256
1052,904
1053,2574
1053,4893
1053,3407
1069,1436
1069,3479
1071,6115
1074,1067
1076,6524
1077,2449
1078,4685
1079,6661
1085,1230
1086,6636
1089,1282
1090,7693
1093,2476
1093,5296
1100,1409
1103,4707
1104,4734
1104,1351
1105,2529
1108,1109
1111,2878
1119,5456
1124,4821
1130,1144
1133,2432
1133,3591
1133,5888
1136,4768
1137,4148
1145,1911
1146,4323
1146,5373
1146,2099
1153,5799
1153,5707
1153,5781
1156,5097
1159,5822
1162,4704
1168,2972
1175,2445
1181,5247
1181,5822
1181,682
1181,6426
1188,3445
1196,2257
1204,3182
1204,5607
1204,5236
1208,6625
1208,6497
1208,2832
1210,3926
1214,6566
1215,5280
1216,5118
1217,5628
1217,1305
1217,5799
1217,5781
1217,5707
1225,6402
1231,5048
1231,1355
1231,170
1231,3144
1231,5356
1231,3365
1231,1653
1231,4770
1233,6185
1234,849
1234,1596
1237,2262
1240,5962
1244,3309
1248,5482
1249,526
1252,5570
1255,1818
1258,4209
1262,1045
1263,2462
1264,1854
1264,1017
1264,5555
1265,4379
1266,2659
1267,582
1271,6298
1272,170
1272,1355
1272,2251
1277,2725
1277,6053
1281,4204
1281,1549
1284,1290
1284,5924
1285,6474
1296,5826
1300,1034
1300,304
1301,5155
1304,3826
1304,2029
1307,6352
1309,6332
1309,4663
1309,5560
1320,1963
1320,2836
1320,3356
1320,4546
1320,1273
1320,4652
1323,3227
1325,1521
1329,844
1332,2290
1332,5433
1336,6494
1337,4178
1337,6312
1340,5858
1340,3128
1340,5748
1340,5799
1340,954
1340,5983
1340,5628
1340,2900
1340,6334
1340,6364
1340,1848
1340,1349
1345,5968
1345,5157
1345,6298
1345,2855
1346,1103
1349,1340
1349,5858
1349,954
1349,6364
1349,2900
1349,1848
1351,736
1351,6338
1352,4419
1352,6346
1352,5560
1352,5048
1352,2598
1352,3733
1352,5557
1352,5538
1355,5048
1355,5296
1361,1847
1361,2124
1363,5886
1365,3116
1365,2875
1366,6063
1367,4245
1368,2814
1372,4463
1373,1712
1376,586
1379,539
1381,5879
1382,4872
1385,5278
1388,1881
1390,2294
1393,3074
1393,6625
1393,6004
1394,5161
1399,4169
1403,6375
1403,1599
1403,6149
1403,659
1412,4118
1412,2394
1415,566
1415,6746
1416,1073
1416,1169
1419,5514
1419,4255
1420,3481
1421,2529
1425,5023
1425,5278
1425,5777
1425,4294
1427,909
1427,3636
1428,6521
1428,6149
1428,6251
1428,6442
1430,4506
1437,6151
1437,4592
1437,728
1438,4323
1438,5183
1438,192
1438,5692
1438,6365
1438,2099
1442,2887
1442,6219
1442,2830
1442,1519
1445,2169
1458,4213
1459,1122
1459,3538
1463,1973
1463,6456
1464,5476
1465,5758
1465,6603
1465,6069
1465,2754
1465,4209
1465,6839
1466,5377
1466,1846
1466,3370
1466,4871
1466,5256
1466,6360
1466,2745
1468,3348
1470,4984
1471,5129
1473,5163
1473,4490
1476,1288
1477,3770
1477,1423
1477,4313
1477,4393
1484,3901
1486,6661
1486,1419
1486,5829
1486,6002
1487,6554
1491,637
1491,1927
1492,393
1495,1739
1499,3238
1499,3792
1499,4337
1505,5692
1506,3058
1506,4042
1507,170
1507,1355
1507,1700
1507,5999
1507,162
1507,5048
1507,4125
1507,5296
1507,4711
1507,6463
1507,2938
1507,3095
1507,929
1508,6312
1513,2033
1513,5792
1513,6627
1513,880
1513,4807
1516,1628
1525,2537
1531,1927
1540,6256
1541,3088
1544,332
1544,2358
1546,4204
1547,3212
1547,4383
1552,5668
1555,709
1555,1003
1556,3077
1561,6170
1561,5099
1561,5278
1561,2579
1562,3245
1567,3594
1569,7035
1571,3187
1571,2099
1574,4988
1575,1997
1575,6361
1578,6223
1584,3660
1587,5129
1589,1194
1595,3493
1596,5166
1596,900
1596,1749
1597,3703
1599,3286
1600,1077
1601,634
1601,5354
1601,397
1606,6553
1607,5465
1610,3770
1614,3397
1614,1033
1614,2061
1614,5019
1614,5973
1615,2940
1617,5692
1617,1571
1617,4484
1617,6365
1617,4176
1620,2865
1620,2468
1620,2559
1623,3297
1624,3293
1627,3560
1632,4418
1632,1367
1632,4245
1633,6484
1635,6410
1638,2099
1638,3907
1638,6365
1639,2725
1639,1277
1639,1518
1640,4131
1642,3901
1642,4967
1645,3513
1648,6522
1653,3095
1653,4513
1653,5048
1653,6463
1653,2463
1656,5161
1656,1394
1656,4206
1663,6584
1668,833
1670,5781
1670,5628
1670,6334
1670,5799
1670,5707
1672,1540
1672,2577
1679,5999
1683,5501
1686,1777
1690,6347
1690,6494
1690,4100
1697,2030
1697,4212
1700,5048
1700,3095
1700,2938
1700,758
1701,6298
1701,2145
1701,2855
1701,982
1701,5968
1701,3674
1701,1271
1701,5939
1701,3148
1701,1345
1702,4176
1703,777
1704,6661
1705,6424
1706,1359
1706,6277
1707,4621
1707,2339
1707,3549
1707,2374
1708,5799
1708,6334
1709,4709
1710,1456
1710,5158
1714,6227
1715,3335
1718,1795
1719,4327
1719,2311
1719,4433
1721,2101
1721,6502
1723,4805
1725,2439
1727,1963
1727,550
1727,4954
1728,3289
1728,3923
1728,5143
1728,1826
1728,6129
1728,6155
1728,4791
1730,6151
1735,606
1736,429
1736,9917
1737,4578
1737,5363
1737,4128
1737,5560
1739,1618
1739,5635
1740,5023
1743,2791
1743,3624
1745,3096
1746,5999
1746,1653
1746,5296
1746,6149
1746,162
1746,1700
1747,1272
1751,2529
1754,4183
1763,6129
1763,1826
1763,3923
1766,2645
1766,3711
1766,4621
1766,4959
1768,6413
1768,5692
1778,843
1782,2194
1782,6658
1790,3571
1796,743
1806,5347
1813,6059
1813,3769
1814,5296
1815,2912
1819,5929
1825,1947
1826,3179
1826,5888
1826,3923
1826,6129
1830,1286
1833,2091
1834,6662
1835,3190
1839,3703
1841,3493
1842,5625
1846,4461
1848,5858
1848,5748
1848,5799
1849,2639
1849,3378
1849,3245
1849,600
1849,2156
1849,3606
1857,6346
1857,4419
1857,3064
1857,982
1857,637
1859,368
1859,5280
1861,4156
1862,6365
1862,2033
1862,3251
1862,5915
1868,5620
1868,6271
1868,6006
1868,7396
1871,2114
1875,5091
1881,1760
1883,4467
1883,5627
1883,2908
1883,571
1883,2989
1883,5713
1884,4587
1897,4508
1899,5097
1899,2637
1899,5835
1900,2057
1901,6011
1901,1112
1901,4029
1901,5486
1912,891
1913,5512
1914,5246
1914,4355
1916,1624
1916,4477
1917,4905
1929,4698
1930,3541
1932,1152
1933,1815
1940,1301
1942,911
1946,6015
1946,4477
1946,6472
1950,5251
1950,1650
1950,6009
1955,918
1955,1988
1955,6511
1959,1953
1963,4954
1963,4652
1963,2072
1963,2836
1963,550
1963,4013
1965,3148
1965,2231
1967,3030
1967,2546
1968,2017
1969,5882
1972,5373
1972,2099
1973,6456
1974,1842
1978,4310
1979,3704
1980,2722
1986,5514
1986,2369
1990,4793
1990,3043
1997,6361
2006,4087
2006,2739
2007,1843
2008,2786
2016,999
2023,2107
2024,2529
2024,4935
2024,5835
2024,2301
2024,5108
2024,2100
2025,4954
2025,1963
2025,550
2026,3652
2029,3826
2032,3495
2032,6553
2032,3889
2037,1302
2039,5057
2039,4008
2039,3164
2042,1739
2043,2786
2043,2008
2044,2112
2044,6536
2045,4724
2052,3440
2053,4018
2053,2150
2054,2971
2055,3088
2055,5914
2056,3862
2061,5019
2061,2994
2062,4972
2062,6458
2064,1679
2069,1439
2069,3945
2071,4704
2076,4707
2076,5758
2076,2725
2076,6475
2078,5296
2078,4341
2088,3094
2092,2938
2092,4078
2093,6237
2093,6303
2097,1272
2097,170
2099,5373
2101,836
2101,5128
2101,5991
2109,2795
2113,657
2113,5001
2115,220
2118,5
2122,6093
2122,4337
2122,3541
2122,5252
2125,631
2126,5359
2127,1596
2127,396
2129,2727
2129,5183
2129,2599
2129,3923
2129,4943
2129,2449
2129,3912
2129,1763
2134,6423
2134,6051
2135,929
2135,4711
2135,2938
2140,3736
2142,1860
2142,3867
2142,3386
2143,4121
2144,5437
2145,4419
2145,3674
2145,3148
2145,5968
2145,982
2145,5157
2145,6298
2145,5939
2145,2855
2145,1271
2145,3278
2146,6463
2146,4513
2146,3803
2146,2842
2146,2463
2153,4248
2155,1180
2157,2580
2157,1057
2159,1826
2160,5950
2160,3232
2166,6406
2170,4908
2170,3639
2171,2636
2171,2432
2172,5161
2172,1394
2177,5490
2177,3899
2180,4314
2181,4197
2183,3190
2185,1196
2186,4465
2186,4566
2189,1617
2189,4807
2189,2099
2189,6365
2189,3967
2193,1452
2193,1381
2193,2513
2193,3433
2198,2143
2198,6510
2198,720
2200,5822
2201,4867
2201,4030
2203,5042
2204,904
2205,6155
2205,5156
2205,2529
2209,4803
2209,6257
2213,5697
2216,6417
2216,2246
2220,1170
2221,2574
2229,3202
2232,3612
2233,1797
2234,3365
2237,3562
2241,2712
2241,612
2241,2089
2241,6116
2241,3764
2241,4362
2243,5130
2244,1491
2246,4929
2246,6417
2250,3501
2250,6927
2251,6456
2251,1463
2251,1973
2255,5706
2256,6234
2257,3094
2257,2831
2258,6365
2258,5692
2258,3511
2258,4912
2267,4465
2269,3736
2273,3907
2273,5148
2273,6627
2273,2033
2278,2449
2278,3094
2286,4862
2290,2341
2293,4501
2293,2135
2293,4341
2293,6521
2293,6289
2293,2078
2293,4711
2293,3240
2297,2598
2297,3275
2297,4477
2297,6472
2303,3051
2306,7356
2306,3485
2307,2170
2307,4908
2309,2933
2309,3819
2311,4433
2313,6614
2314,5864
2314,4987
2316,5033
2317,3463
2317,2213
2320,5348
2324,3363
2327,583
2328,2529
2331,1086
2331,4734
2331,6457
2336,2449
2339,3007
2340,5150
2344,3213
2345,1653
2345,4711
2345,170
2348,1960
2353,6215
2355,2452
2364,4070
2365,3200
2366,1798
2370,5490
2370,3899
2370,2817
2371,6746
2371,4557
2374,3711
2394,3048
2394,6080
2394,4303
2394,4118
2395,5222
2395,6230
2399,2146
2399,2476
2399,3616
2399,162
2399,5601
2403,249
2407,3462
2407,601
2414,2174
2415,1355
2415,170
2419,4393
2420,3308
2422,4591
2423,5362
2427,1346
2427,2143
2442,3470
2442,4484
2442,3720
2442,2189
2442,6413
2442,7360
2442,6365
2447,6090
2453,6325
2458,4195
2460,4724
2460,2045
2461,1817
2463,6463
2463,5999
2475,1793
2475,6030
2476,5296
2476,5048
2476,5999
2477,6686
2477,901
2478,5082
2478,3843
2482,3176
2482,6085
2483,5873
2485,1806
2485,3534
2493,5743
2493,3736
2498,4255
2499,2500
2501,5731
2501,1338
2503,6308
2503,1083
2505,5882
2505,1969
2505,4038
2507,1328
2508,4864
2511,610
2511,1682
2512,2826
2512,766
2512,2110
2513,1832
2513,1381
2514,3038
2521,2637
2525,539
2525,2368
2526,5387
2529,4935
2534,5865
2534,5999
2534,6398
2534,5296
2538,1859
2538,368
2538,5280
2542,5517
2542,4461
2545,5032
2547,1213
2548,6371
2551,6000
2551,6458
2551,1166
2554,5463
2554,3769
2554,6155
2554,6129
2554,4390
2554,1826
2554,4052
2554,5143
2554,6365
2554,1813
2554,2449
2554,2700
2554,4448
2554,606
2554,3923
2554,2638
2555,6595
2555,3062
2555,5870
2556,3247
2557,3223
2557,6208
2557,5070
2557,6150
2557,4133
2557,701
2560,4480
2565,3078
2566,2672
2568,5467
2570,1591
2570,3031
2572,6492
2572,1776
2573,5597
2573,2135
2573,1814
2573,5048
2573,4711
2573,170
2578,2981
2579,5278
2579,5837
2579,3990
2579,3623
2579,6170
2580,5288
2580,4750
2580,5633
2582,2645
2582,3549
2583,3981
2584,1757
2584,3760
2587,1757
2588,5372
2589,3493
2589,6310
2589,6363
2590,2552
2591,2735
2592,1947
2593,4884
2594,1549
2596,6612
2597,4042
2597,4076
2598,637
2599,4398
2602,2470
2606,6425
2610,4651
2612,7422
2612,3415
2612,6088
2615,1348
2615,207
2617,622
2620,3135
2621,6352
2623,4800
2626,3686
2627,5001
2627,5973
2627,588
2632,2290
2632,3659
2635,3674
2637,4851
2638,3769
2638,5295
2639,5075
2639,3624
2639,4111
2642,4950
2642,4054
2643,6454
2645,4853
2648,637
2649,6253
2651,438
2658,815
2660,3745
2667,1574
2678,5291
2679,4778
2689,6462
2696,1980
2696,3748
2699,5434
2700,2449
2700,673
2700,5463
2700,5183
2700,10009
2700,4943
2702,2626
2702,3676
2705,6197
2712,3764
2712,612
2713,6475
2716,5849
2716,2574
2719,4258
2725,6053
2727,4448
2727,6248
2727,2554
2727,4012
2727,4478
2727,4414
2727,3515
2727,5113
2729,849
2732,3925
2732,2858
2737,2928
2739,4087
2745,4461
2745,1846
2745,5377
2745,6360
2745,5980
2746,1263
2746,3603
2747,1852
2749,4693
2751,2744
2753,5300
2754,6069
2754,4707
2754,1103
2758,5607
2758,3606
2759,3584
2760,5987
2760,2099
2760,1972
2765,1328
2765,2507
2766,1708
2766,6364
2770,4970
2770,3056
2776,5019
2776,3999
2776,5055
2776,2061
2776,5061
2779,1480
2779,846
2782,4194
2788,2124
2788,4454
2793,3721
2793,1988
2796,4212
2796,1894
2796,3063
2798,1650
2798,4196
2798,5699
2798,5442
2801,2529
2803,4723
2806,3591
2806,5883
2806,1133
2813,2887
2813,3356
2813,753
2813,4652
2813,1442
2813,2830
2813,6219
2813,2836
2814,5496
2814,3909
2814,4797
2829,5355
2832,6497
2832,6625
2832,3074
2833,3144
2842,5853
2842,4513
2842,4341
2842,3803
2842,6463
2842,2078
2842,2463
2844,2283
2845,2729
2845,4362
2845,6115
2845,5252
2845,1071
2850,4327
2850,3387
2850,2780
2855,6298
2855,1271
2855,5157
2857,5688
2860,4797
2862,4435
2864,6421
2865,2559
2865,6483
2874,734
2880,553
2882,5822
2884,4148
2886,880
2887,6219
2887,2830
2889,1342
2892,1974
2896,1435
2900,954
2900,6334
2900,1848
2900,4176
2903,6634
2904,3669
2904,4268
2904,3031
2904,5193
2904,2570
2911,922
2911,4778
2911,6587
2917,3533
2919,3020
2919,3666
2919,6475
2920,4878
2923,5437
2924,5711
2927,2689
2927,5032
2932,933
2933,3819
2938,5296
2938,5865
2941,6463
2941,882
2941,1193
2941,170
2941,4513
2941,1653
2941,2078
2941,2476
2941,5048
2944,5787
2945,6279
2945,3930
2945,7794
2945,2384
2945,6542
2945,4455
2945,6645
2945,3827
2947,4372
2947,170
2948,2994
2948,1900
2948,2061
2948,4156
2948,2057
2950,7397
2951,2533
2951,2913
2952,3314
2952,1474
2954,4557
2954,6746
2956,1440
2957,2972
2960,2519
2966,1926
2966,1363
2966,1290
2969,3598
2969,4373
2973,5322
2974,2554
2977,5968
2978,4228
2978,5994
2978,4822
2979,1917
2979,4905
2983,3076
2989,5800
2989,3298
2991,2125
2991,5403
2997,1980
2997,4759
2997,3993
2999,2564
3000,2583
3007,4970
3009,5768
3011,2841
3012,6494
3012,4100
3019,4853
3020,6475
3028,5512
3028,1913
3028,3862
3028,3175
3029,3915
3030,6261
3030,5091
3030,3862
3030,3968
3030,3814
3030,1556
3030,4032
3032,3958
3032,4212
3041,2816
3048,4118
3049,3767
3050,3192
3051,608
3052,4578
3054,4838
3054,4433
3060,3345
3061,2637
3061,1069
3062,5904
3062,4109
3063,5715
3064,5157
3064,637
3064,6346
3064,6431
3064,5538
3067,5844
3067,6597
3074,6497
3074,6625
3075,2689
3076,2489
3080,2535
3081,5296
3084,6456
3086,2096
3091,4887
3091,1480
3094,6413
3095,5296
3095,5048
3095,4461
3096,2102
3100,717
3101,5410
3101,4841
3102,3568
3107,2324
3111,3750
3112,6338
3112,2075
3112,1826
3112,6129
3112,3923
3113,1984
3113,4245
3113,859
3118,3606
3118,3378
3118,600
3118,5194
3120,7138
3120,4060
3123,3917
3123,211
3130,4091
3132,1540
3132,2577
3132,1594
3132,1988
3134,3212
3139,1288
3139,1476
3140,2971
3147,4571
3148,3674
3156,6420
3156,3405
3158,5882
3162,5661
3162,1751
3162,5969
3162,1421
3164,5057
3164,6312
3166,3674
3166,3785
3166,2635
3169,6686
3169,6476
3174,2828
3176,3492
3176,6085
3178,1547
3178,3692
3179,2449
3181,1170
3181,5955
3181,755
3184,2786
3186,5157
3186,6487
3189,2729
3189,6927
3196,2982
3198,6616
3199,3026
3205,6016
3213,3895
3213,1978
3214,5594
3219,5956
3220,6088
3220,4209
3220,2791
3220,3053
3220,6839
3223,5648
3223,6208
3223,5070
3223,6150
3223,3319
3223,701
3227,4440
3228,2096
3230,2994
3231,2095
3231,5828
3232,2722
3232,1910
3233,4632
3235,4152
3235,5157
3236,5019
3236,2061
3240,1653
3240,2463
3240,6463
3240,5273
3240,4513
3240,4721
3240,3803
3240,2842
3245,2156
3245,6309
3249,5929
3249,5679
3251,4807
3251,4484
3251,5692
3251,2258
3251,6365
3251,6323
3258,4707
3261,1019
3273,3293
3273,4032
3289,6338
3289,6129
3289,2638
3289,6155
3289,3923
3289,1826
3291,1278
3293,4032
3295,1278
3295,3088
3297,4521
3301,1784
3302,2921
3303,1917
3303,4905
3304,4696
3304,2095
3319,5070
3322,3502
3323,3723
3326,2091
3326,3661
3334,4226
3335,6627
3335,4047
3335,5295
3341,2928
3341,6459
3341,2737
3345,4851
3346,3477
3354,3150
3356,2836
3356,2830
3357,4377
3357,2308
3365,4513
3365,2463
3365,5296
3365,1653
3365,6463
3370,5377
3370,1846
3370,1523
3373,3400
3374,3036
3374,674
3374,2649
3374,6253
3375,6151
3382,3684
3392,5452
3392,3950
3393,6528
3395,1718
3400,5799
3400,5692
3400,4841
3400,1972
3400,4484
3400,3511
3400,1505
3400,2099
3400,6365
3400,3943
3400,5410
3400,4323
3401,4515
3401,3793
3402,627
3403,4148
3405,3230
3407,4893
3408,3052
3408,4578
3410,3530
3414,2814
3414,2023
3417,2696
3417,3748
3417,4759
3417,651
3417,4162
3417,5923
3419,5121
3419,1185
3423,1900
3424,4893
3424,5849
3424,412
3424,6106
3424,2221
3424,3407
3429,1826
3431,2130
3439,3896
3439,6484
3439,3598
3443,5242
3446,2301
3450,4482
3451,5929
3453,1771
3456,5781
3462,5501
3462,9917
3463,2213
3463,5063
3465,1525
3469,4369
3470,6545
3471,2199
3472,6365
3472,2099
3472,4484
3473,5836
3474,5377
3474,6360
3476,1978
3478,4483
3484,4204
3484,3986
3484,4452
3484,5426
3484,2635
3485,3767
3485,7356
3494,2928
3497,6124
3511,4841
3511,6365
3512,5363
3515,5552
3515,2858
3515,5627
3517,4205
3519,2519
3519,2960
3522,2233
3522,3929
3522,6177
3522,4207
3523,5304
3525,5637
3525,6617
3525,2829
3527,3331
3534,5347
3535,3680
3536,2637
3536,4851
3539,2577
3539,1988
3539,1540
3539,3721
3539,1594
3543,1364
3544,3752
3544,3409
3548,1543
3549,4621
3555,2449
3555,5183
3555,6129
3559,6587
3559,2467
3560,5100
3560,2132
3564,1751
3564,2529
3564,5510
3564,2876
3564,4935
3566,4091
3567,6107
3575,6597
3575,3993
3581,3293
3586,4131
3589,5296
3589,6463
3589,5597
3589,4711
3590,3075
3590,2545
3590,2689
3600,6652
3603,1263
3604,6165
3606,5607
3606,3378
3607,3099
3613,4715
3614,2036
3619,1616
3623,5278
3623,3990
3623,6170
3624,2156
3625,2099
3625,5373
3625,6307
3632,6282
3636,6567
3645,3133
3652,6817
3653,6510
3653,6459
3653,5296
3653,5611
3657,9901
3657,1605
3657,4243
3661,3326
3662,1505
3662,3101
3662,2099
3662,6365
3662,3511
3662,5410
3662,5692
3663,663
3663,2432
3665,4153
3665,5470
3667,3167
3668,1399
3668,4169
3668,1865
3669,3031
3675,4941
3682,4055
3682,5929
3685,6413
3685,6365
3688,963
3688,3075
3691,3
3693,5276
3698,4473
3698,3891
3699,1854
3699,5555
3702,6492
3704,3311
3705,1315
3710,2415
3711,3007
3712,2530
3714,6417
3715,2637
3717,4431
3717,2367
3720,4912
3720,880
3720,5862
3720,3470
3720,5792
3720,7360
3720,6545
3721,2313
3730,1255
3730,1818
3731,6633
3732,5269
3733,637
3734,2626
3734,3686
3735,4709
3735,789
3736,5743
3737,6086
3738,563
3744,6433
3745,4316
3747,4397
3747,6484
3751,7360
3751,3720
3751,2442
3751,4807
3751,6365
3751,3470
3757,6365
3757,2099
3757,1768
3758,4587
3760,1757
3760,2677
3762,1878
3765,2449
3774,2001
3774,4883
3775,4919
3775,6645
3777,560
3777,5466
3780,4768
3780,720
3781,4709
3783,6241
3785,1549
3786,3368
3786,5157
3786,4128
3787,6270
3788,5051
3792,4426
3793,4917
3793,4515
3796,3923
3796,1826
3796,3439
3796,6484
3800,2529
3801,3458
3801,630
3803,4513
3803,1653
3803,2463
3803,6463
3806,1359
3806,6170
3810,2779
3822,1718
3825,4848
3827,4919
3827,2384
3827,6645
3829,6454
3829,2577
3829,1594
3831,1896
3839,6297
3839,6321
3843,3415
3843,6551
3843,5706
3843,5082
3843,6062
3848,6365
3848,2099
3848,1768
3848,6041
3848,4323
3849,4301
3849,734
3853,5999
3853,5296
3853,3286
3853,5601
3855,3339
3857,1549
3857,4204
3858,397
3866,1954
3871,1937
3876,6585
3876,5964
3876,1152
3876,4220
3883,2916
3883,6599
3883,5390
3886,1101
3888,3475
3889,586
3891,4361
3893,3980
3894,4677
3902,5800
3905,1457
3907,6129
3908,4744
3908,3331
3910,885
3912,4398
3912,3923
3912,2554
3914,1491
3914,2244
3916,5628
3916,5707
3916,5858
3920,7372
3923,6627
3923,2638
3925,3444
3927,3212
3928,4735
3930,2384
3930,4455
3939,4831
3941,6297
3946,3826
3946,1892
3955,3961
3962,206
3963,1978
3964,4207
3964,1863
3964,2023
3964,3593
3964,3414
3964,3909
3964,2814
3966,2610
3966,4651
3972,2207
3975,5934
3975,4112
3979,2922
3983,2953
3986,3674
3986,2786
3986,1549
3988,2327
3991,206
3994,1297
3995,4851
3995,2637
3995,4254
3995,3536
3996,5267
3996,5001
3999,5055
4000,4017
4000,5820
4003,504
4009,3231
4012,6466
4012,6129
4012,5947
4012,902
4013,2836
4019,1272
4019,976
4019,6237
4019,6554
4020,4215
4022,6567
4022,5283
4022,1553
4022,3955
4023,3574
4024,2805
4034,3541
4035,4205
4038,5882
4038,1969
4043,1757
4043,2587
4045,4548
4045,2197
4047,6413
4048,1976
4049,3326
4049,2826
4049,2091
4049,3661
4052,2449
4052,673
4059,1886
4060,7138
4060,4709
4060,1709
4062,6017
4062,6649
4062,1972
4062,2099
4063,1494
4065,3058
4071,960
4075,5615
4075,897
4078,1355
4078,2938
4078,2947
4093,1848
4093,1978
4093,5799
4093,1217
4093,5628
4093,2073
4093,3456
4093,6334
4093,5707
4093,5748
4093,5755
4093,5858
4094,2
4094,2282
4096,2096
4100,6347
4100,6494
4104,4393
4106,6516
4106,5879
4109,4264
4110,3430
4111,3606
4111,5075
4120,749
4120,955
4124,794
4125,3095
4125,1700
4125,4513
4125,5296
4125,1653
4125,2463
4125,3616
4125,6463
4128,5157
4128,4264
4133,701
4133,5648
4137,6633
4140,1616
4140,3619
4141,1019
4142,2075
4154,5651
4154,6356
4154,4176
4154,6413
4154,3094
4156,1900
4158,1549
4158,2637
4158,4233
4161,2689
4161,6495
4161,3075
4162,5923
4162,4759
4162,1980
4162,2722
4164,4543
4171,6191
4171,4204
4171,2786
4171,1436
4173,5468
4173,4183
4173,6062
4176,3094
4176,2099
4176,6365
4177,4256
4178,9917
4185,6507
4185,4359
4185,957
4185,2017
4186,6475
4191,3757
4191,2099
4191,6365
4191,3472
4191,5692
4192,4543
4192,4164
4199,3546
4201,5750
4201,1540
4201,6256
4203,1423
4206,5161
4206,2172
4208,4477
4210,3691
4210,3
4210,0
4212,5715
4216,2627
4216,5973
4216,588
4216,5001
4216,6355
4217,3691
4219,4066
4219,5770
4221,1919
4224,6365
4226,2990
4228,6352
4231,1943
4235,1040
4236,2256
4241,4070
4241,2364
4243,1605
4244,943
4246,4344
4246,4185
4246,2017
4247,2861
4254,4851
4256,4177
4259,897
4259,4075
4259,5615
4260,6334
4260,5628
4261,3296
4261,3884
4263,4398
4263,969
4266,5471
4268,3031
4268,5193
4271,6402
4273,1317
4275,4956
4280,3088
4284,2148
4287,288
4287,4054
4294,5777
4294,1171
4295,3765
4295,3563
4295,4484
4297,4219
4299,3095
4299,5296
4299,3589
4299,5330
4299,6463
4299,4343
4299,5597
4299,4711
4299,1355
4299,170
4303,3077
4303,2095
4303,1556
4303,4118
4304,5883
4304,528
4305,2902
4306,1978
4308,4492
4308,4255
4311,2878
4311,510
4317,4623
4318,1963
4318,2836
4318,4954
4318,997
4319,2348
4319,3463
4323,2099
4323,5373
4327,2780
4327,3387
4328,2807
4329,724
4329,6091
4333,2629
4338,3289
4338,6627
4338,5743
4338,6338
4338,3112
4338,3923
4338,820
4338,1826
4339,3124
4341,5296
4343,5296
4343,5048
4344,2096
4347,4032
4352,5581
4352,4587
4355,2243
4355,5130
4355,1748
4357,3088
4359,2017
4359,957
4359,6507
4360,270
4362,2249
4362,3764
4362,5093
4363,701
4363,6150
4364,3986
4364,3785
4366,951
4368,4463
4369,5980
4369,3583
4369,6192
4372,1355
4372,170
4373,1558
4376,5536
4389,3851
4389,1212
4389,4213
4390,3769
4390,5295
4390,6627
4392,259
4395,929
4395,1700
4395,3589
4395,5296
4395,6448
4395,4299
4397,990
4397,5909
4397,6484
4398,5463
4398,4052
4398,4390
4398,6323
4398,673
4401,3088
4401,900
4402,1094
4405,6322
4406,1577
4409,5150
4411,3502
4415,1369
4416,4266
4418,4245
4418,1367
4419,2598
4419,982
4420,4513
4420,1653
4420,6463
4421,5293
4424,3982
4424,4204
4424,6091
4424,5426
4424,1436
4424,2635
4424,1546
4424,4452
4425,5999
4425,6398
4426,5213
4427,6625
4427,6654
4428,4987
4428,5711
4430,3718
4441,1662
4451,5329
4451,1881
4453,4682
4454,1750
4456,4790
4462,7788
4462,6075
4464,5708
4466,3088
4466,2017
4466,4246
4469,2263
4469,6457
4472,5659
4473,3190
4475,7360
4478,4219
4478,2554
4478,4012
4478,5295
4479,1302
4479,3723
4484,2099
4484,6365
4484,5410
4484,5692
4486,1656
4487,3031
4488,7263
4488,3483
4489,3334
4495,5273
4500,5685
4501,5601
4501,5296
4501,3616
4504,1777
4510,3520
4510,5435
4513,6463
4513,5296
4517,6463
4517,7406
4519,1440
4519,2956
4519,2361
4520,4759
4524,2099
4524,3563
4524,5987
4525,2742
4526,340
4527,3287
4535,1045
4537,3501
4537,6927
4537,2250
4539,4623
4541,3183
4541,7878
4546,4103
4546,1963
4546,4954
4546,3356
4546,2836
4546,4652
4546,4675
4546,4578
4548,2694
4551,3854
4552,880
4555,4758
4558,4230
4560,5779
4561,2449
4564,243
4566,4465
4567,3938
4567,1689
4569,586
4572,5886
4572,1363
4581,1396
4584,1514
4585,2636
4588,5715
4589,4264
4591,5978
4595,2071
4595,4704
4599,4264
4600,7328
4610,6481
4613,5475
4617,1801
4620,993
4621,4213
4621,3711
4623,270
4624,929
4624,6927
4624,1272
4629,2616
4630,852
4631,1839
4638,2121
4643,5318
4652,2836
4661,3190
4661,6015
4661,6367
4663,5560
4666,5480
4667,2529
4674,7035
4678,2574
4678,5849
4678,4893
4680,6489
4682,4832
4686,4884
4686,2593
4688,6330
4688,6365
4688,5987
4688,880
4688,4943
4689,1709
4689,7138
4689,4709
4689,789
4693,820
4693,3736
4698,4669
4702,5640
4705,2626
4705,2702
4705,3676
4710,3685
4710,3907
4710,897
4710,5148
4710,6365
4710,4075
4710,880
4711,2938
4711,170
4718,2598
4718,4200
4718,985
4718,4419
4721,3803
4721,4513
4721,4341
4721,1653
4721,6463
4721,2463
4725,4092
4727,5736
4730,756
4738,6597
4738,3575
4738,4465
4741,3284
4741,6194
4742,1608
4748,4573
4750,5288
4751,5367
4752,2096
4753,219
4754,4546
4757,2577
4759,1980
4759,3748
4759,2722
4759,1910
4762,1015
4762,2817
4769,5652
4770,3095
4770,2938
4770,5597
4773,1121
4779,3632
4780,3081
4784,4594
4788,4485
4789,4862
4791,880
4791,6627
4791,6365
4791,4943
4793,3043
4794,3207
4794,973
4795,900
4798,1888
4798,1131
4800,4316
4807,6365
4807,6589
4807,3967
4809,5706
4813,6330
4813,2632
4813,3659
4813,4688
4813,4187
4816,3036
4816,6571
4820,6333
4821,5868
4824,3330
4825,3703
4835,5828
4839,4094
4843,5692
4846,6583
4846,2460
4849,2099
4849,1391
4850,2247
4855,5978
4856,334
4856,2192
4856,4755
4859,5385
4864,2733
4864,442
4865,4221
4867,4030
4869,6483
4870,2652
4870,6383
4870,3858
4871,1846
4875,4864
4876,5755
4876,1217
4879,6442
4880,5118
4881,4419
4881,982
4881,3415
4881,6088
4886,6323
4887,1480
4890,6627
4890,2814
4890,3907
4890,3293
4890,5989
4893,2574
4893,5849
4894,2991
4894,5380
4896,4807
4898,3549
4898,2374
4898,3992
4898,1943
4898,2339
4903,3051
4903,4446
4903,2303
4905,2574
4906,2178
4906,198
4908,5763
4912,6365
4912,1744
4912,4807
4915,5541
4916,1150
4917,4515
4918,849
4919,2384
4920,2017
4922,5426
4923,3139
4923,1476
4923,3816
4925,7369
4925,2090
4925,4278
4927,3838
4928,7058
4931,510
4931,2878
4931,3526
4931,7401
4934,5393
4936,2690
4937,2361
4937,4571
4940,1770
4942,368
4943,2449
4943,6129
4943,5888
4945,2308
4949,2953
4951,7035
4954,2836
4958,6365
4958,4912
4958,2442
4958,3470
4958,3720
4958,7360
4958,4807
4958,3751
4959,6841
4960,3961
4965,901
4966,6275
4966,8923
4970,3056
4971,2099
4971,6365
4976,1334
4976,2725
4983,5756
4991,295
4995,4255
4995,3212
4995,2019
4997,268
5000,3400
5001,5591
5001,5973
5001,2742
5004,3342
5005,397
5005,634
5008,368
5012,2349
5014,2857
5015,3876
5015,4220
5015,6585
5015,2698
5015,5964
5015,1152
5016,4367
5016,5411
5019,2994
5021,1714
5021,3085
5023,5137
5023,5777
5025,4876
5027,6443
5027,1540
5027,6256
5029,2183
5029,3190
5029,5458
5031,4880
5031,6591
5037,1760
5041,6118
5041,657
5046,2990
5046,5465
5048,5296
5050,2243
5057,5617
5063,1993
5063,5697
5063,833
5063,3192
5069,6365
5069,880
5072,4204
5072,6191
5072,5104
5072,2786
5072,2791
5073,6312
5077,3151
5078,3864
5081,4827
5082,5706
5082,6551
5091,3862
5091,5628
5091,5512
5091,2073
5094,3612
5094,2232
5099,5278
5105,1373
5107,3307
5115,7360
5115,3470
5115,6365
5115,3720
5115,2442
5115,1744
5115,5915
5116,2647
5120,5225
5136,2744
5141,3963
5142,6179
5143,673
5143,6129
5143,1826
5143,3179
5143,3923
5147,1277
5147,2725
5148,880
5148,3907
5148,2033
5151,6144
5158,1456
5160,3311
5160,1312
5163,4490
5170,4194
5172,1103
5172,4707
5172,6069
5174,5980
5174,5689
5175,1196
5178,2665
5179,5643
5182,4192
5186,1278
5186,5357
5186,3379
5186,3060
5186,5593
5190,5213
5192,2552
5194,3182
5194,3378
5204,4186
5205,3191
5216,3308
5218,1502
5221,3263
5223,6365
5223,6545
5223,4323
5223,2033
5223,2099
5223,5792
5224,4408
5224,1831
5226,5999
5226,6521
5226,4711
5226,162
5226,2938
5227,6536
5229,1089
5230,5853
5230,4013
5230,6595
5230,1335
5230,4103
5235,834
5236,5607
5236,3624
5236,2156
5237,2130
5241,2535
5244,2440
5246,2738
5246,1748
5247,6043
5247,818
5247,6426
5251,222
5251,1650
5251,6009
5252,3308
5252,4362
5252,3764
5253,2301
5253,6191
5260,3216
5262,2832
5265,6064
5267,5001
5267,5591
5268,6323
5268,6099
5271,6095
5272,5426
5273,1334
5275,5929
5278,6170
5280,368
5283,3955
5287,6408
5290,3238
5293,5374
5294,1936
5301,4056
5305,5439
5306,10009
5316,3854
5316,2494
5319,3189
5319,1071
5319,2249
5320,5756
5321,6927
5321,6187
5329,5766
5330,5296
5330,2476
5333,6567
5334,6454
5334,4628
5336,3088
5339,1861
5339,4023
5339,1313
5339,5616
5341,3801
5346,3443
5346,4294
5346,1171
5348,5549
5349,699
5354,397
5355,6391
5356,4711
5356,6463
5356,4770
5356,2938
5356,4513
5358,5148
5359,4693
5359,3736
5359,820
5359,5743
5361,6875
5363,557
5369,2744
5371,3498
5377,5980
5377,6360
5377,4461
5378,1982
5378,3455
5380,2991
5380,5403
5382,1359
5386,5028
5386,1912
5386,891
5390,2916
5390,6599
5401,4255
5401,6574
5402,1041
5403,2930
5404,5851
5405,6567
5405,5145
5406,4140
5406,1616
5406,3619
5414,1081
5417,4325
5417,1804
5422,1067
5422,743
5424,4723
5426,4204
5426,1549
5432,5296
5432,2476
5432,1093
5433,5930
5435,6180
5437,6663
5440,6651
5440,6472
5440,4477
5440,6074
5447,880
5452,3950
5458,2183
5458,3190
5459,5108
5460,4806
5461,2449
5463,6129
5463,6365
5463,2449
5466,560
5467,3772
5468,6062
5470,4153
5474,4753
5474,219
5476,657
5477,1243
5483,5977
5486,4029
5486,1112
5490,3899
5495,5569
5495,4272
5496,4797
5497,5879
5497,6516
5497,2013
5497,4106
5502,6474
5502,1397
5502,1285
5505,4264
5510,6101
5510,3507
5511,5139
5511,6014
5512,3862
5512,3175
5513,4477
5516,7639
5516,3068
5517,4461
5517,5980
5522,3314
5524,1248
5527,5001
5531,5555
5531,1854
5539,6191
5544,2769
5544,4736
5546,740
5546,6976
5555,1854
5556,4187
5557,1530
5557,5048
5557,1653
5557,1355
5557,1302
5557,170
5557,6442
5561,4536
5565,2462
5567,6185
5568,2280
5572,3166
5572,3674
5572,5968
5573,4877
5577,5929
5577,4055
5588,6148
5588,594
5590,3674
5590,4452
5590,2635
5590,5426
5594,2299
5597,2938
5597,3095
5599,1436
5599,1546
5600,1744
5600,2258
5600,4912
5601,3286
5601,6463
5601,4513
5602,6139
5603,4176
5603,6413
5603,6356
5604,6330
5604,2632
5604,3659
5604,4688
5604,4187
5606,2452
5606,2355
5608,5265
5608,6413
5608,880
5610,6169
5610,3707
5611,6459
5614,6018
5616,3088
5616,6303
5616,5001
5618,4587
5619,5155
5622,3069
5623,1937
5628,5781
5629,5521
5631,6637
5632,807
5634,5084
5634,1136
5634,4904
5634,6390
5636,4929
5637,5110
5637,5980
5638,5445
5639,5926
5643,5823
5648,5070
5650,6285
5650,244
5652,3896
5656,3390
5658,5057
5661,2099
5661,2529
5662,5673
5662,6357
5662,5670
5664,1448
5671,3526
5671,5820
5671,2878
5672,844
5672,4797
5672,1329
5672,3581
5672,5989
5672,3293
5672,4890
5675,2091
5679,4055
5679,5929
5681,6399
5682,2400
5682,657
5683,3586
5683,4109
5689,5980
5696,657
5697,833
5697,3192
5702,4794
5703,2063
5707,5781
5713,571
5715,2626
5726,3257
5726,6017
5730,866
5730,4598
5730,4822
5730,5994
5731,4853
5734,3662
5735,4264
5737,5084
5739,338
5739,612
5740,2353
5741,4229
5741,2291
5744,6587
5744,2911
5744,2096
5750,6256
5751,3479
5751,5153
5760,1100
5760,1409
5761,4574
5761,5842
5761,3068
5762,1196
5762,5175
5763,6413
5768,3088
5769,7434
5770,2636
5771,4447
5774,4626
5780,5363
5782,1629
5789,781
5791,1472
5792,880
5792,6413
5792,5692
5792,6365
5792,5295
5792,6545
5793,3238
5794,697
5794,6090
5799,5707
5799,5781
5801,6170
5801,5278
5804,4898
5804,4853
5804,2582
5808,2533
5809,3118
5809,3624
5810,2419
5810,1423
5810,207
5814,1069
5814,5272
5814,1436
5814,3061
5816,4447
5816,6222
5819,5411
5819,3088
5819,193
5829,1492
5831,5425
5834,6661
5835,6135
5835,5296
5837,6170
5837,3990
5838,6023
5838,4805
5839,5157
5839,3780
5839,6487
5840,2522
5846,2334
5847,6624
5848,901
5851,6185
5852,6155
5853,637
5854,5454
5854,3801
5855,1658
5855,3106
5856,3582
5856,1576
5856,3914
5856,5384
5858,5799
5858,6334
5862,6365
5863,4303
5863,3491
5863,4769
5863,2858
5863,3524
5865,5999
5867,5952
5870,3586
5870,1718
5870,3979
5872,6987
5872,4290
5873,6653
5883,528
5884,6317
5884,4075
5884,5615
5886,4572
5886,1363
5889,2636
5889,6099
5889,10009
5896,5720
5898,2647
5903,5591
5906,2627
5906,6134
5906,6355
5906,5973
5908,2253
5915,5987
5921,1650
5923,3232
5923,2722
5925,5898
5925,6594
5925,60
5925,2647
5928,192
5928,5373
5928,2099
5928,6365
5935,2183
5935,3190
5939,6298
5939,2791
5942,4517
5948,2357
5950,1910
5950,3232
5953,6487
5957,1395
5959,5949
5960,4431
5960,658
5963,6391
5966,2738
5968,1271
5968,5538
5968,5157
5969,2529
5970,5994
5971,936
5972,1624
5974,3690
5980,4461
5983,1708
5983,5755
5984,3258
5987,4843
5987,5373
5987,3511
5987,1972
5987,4573
5987,1768
5990,1391
6000,2470
6000,4987
6000,5711
6002,1986
6002,1419
6002,5514
6002,2369
6002,4255
6007,5811
6009,1650
6009,222
6011,5486
6011,1112
6011,4029
6012,5048
6012,1355
6014,2551
6015,6472
6023,5838
6024,1653
6026,2888
6026,4933
6027,3238
6031,6172
6033,6337
6034,2821
6045,1562
6045,2594
6046,590
6046,3088
6046,170
6047,2592
6050,539
6051,6423
6054,5582
6058,4119
6058,1206
6059,6413
6059,4390
6060,6463
6060,6927
6060,5601
6062,4571
6067,2108
6069,5126
6071,3927
6071,4806
6071,3919
6077,1369
6088,7422
6088,3415
6091,6343
6093,3541
6094,1962
6095,3511
6095,3400
6103,5454
6105,6633
6105,4791
6105,3289
6105,3923
6105,1826
6107,4379
6109,6213
6112,3765
6112,2099
6116,612
6116,2636
6116,2089
6116,3764
6116,6427
6116,2712
6116,4219
6116,1351
6117,2764
6118,1665
6119,2161
6119,1306
6120,3378
6120,5194
6120,600
6120,3118
6120,3606
6125,4598
6125,5730
6126,6567
6127,6515
6131,4384
6131,1629
6134,588
6134,6355
6136,6387
6137,5894
6140,1718
6141,2385
6141,5264
6145,2098
6146,3234
6146,4349
6150,701
6150,5648
6150,5070
6151,1856
6155,6129
6156,6267
6157,2759
6157,3025
6165,3756
6173,3088
6173,4577
6181,6064
6184,4804
6184,6038
6187,6927
6190,5651
6193,6456
6194,3284
6199,3343
6206,1026
6206,1826
6208,5648
6208,5070
6208,701
6209,1355
6209,3803
6210,6425
6217,1972
6217,5600
6217,5373
6217,4323
6217,2099
6217,5987
6225,2301
6226,4660
6231,5145
6240,5342
6240,5563
6243,5101
6251,3853
6251,3286
6254,5117
6255,1186
6258,5560
6258,6332
6258,4663
6259,3399
6261,4032
6261,3820
6262,6298
6262,5968
6264,1272
6264,170
6265,1927
6266,2533
6266,5808
6267,4935
6269,5479
6271,2832
6271,5419
6272,3322
6272,4411
6272,3502
6275,8923
6276,1282
6289,4125
6289,929
6289,170
6289,1355
6289,2078
6289,4513
6289,1653
6289,4341
6289,3616
6291,4234
6292,5699
6299,3088
6299,2096
6299,1444
6305,3641
6305,3341
6305,6510
6305,1833
6305,577
6307,4748
6307,4323
6309,3606
6309,600
6309,5607
6309,2156
6309,3378
6312,6155
6312,2637
6312,6343
6312,5128
6314,4178
6314,9917
6314,3462
6317,270
6319,3122
6321,3941
6321,6297
6321,720
6327,1272
6329,2529
6330,6589
6331,2099
6331,3352
6331,6041
6331,4323
6331,3625
6332,5560
6338,5295
6338,2638
6338,6627
6338,4176
6338,673
6341,4055
6341,5275
6341,5929
6341,3451
6341,5679
6342,6466
6344,3667
6346,5538
6346,637
6352,1307
6353,4379
6355,5973
6356,4176
6356,2099
6356,3094
6356,6365
6356,6627
6359,2183
6360,4461
6360,3583
6360,5980
6362,6450
6362,7428
6363,3493
6364,5858
6364,3456
6364,5628
6364,6356
6364,2099
6365,2099
6365,1768
6366,6459
6367,6651
6368,4548
6368,2694
6370,485
6379,5620
6383,801
6383,5005
6383,397
6384,1704
6384,6661
6384,1085
6386,4693
6386,6477
6387,2996
6390,1136
6398,5296
6398,5048
6400,4158
6400,4233
6400,5864
6400,5362
6403,964
6404,5743
6404,820
6409,218
6412,4327
6412,3387
6418,1488
6418,1717
6420,1718
6420,6140
6426,4543
6429,756
6429,1301
6429,1939
6429,1940
6432,4341
6432,1512
6432,5242
6433,3744
6434,5991
6436,1272
6436,1463
6436,1973
6436,2251
6436,1355
6440,3088
6442,5296
6445,345
6445,5633
6448,5296
6448,6463
6448,2463
6448,3803
6452,884
6460,5886
6460,1363
6460,4572
6468,828
6472,2598
6478,5296
6478,4341
6478,3589
6478,1700
6478,929
6478,4299
6478,6448
6478,4721
6479,2836
6480,4481
6483,3202
6483,2559
6483,2468
6489,4680
6490,673
6490,1622
6490,6685
6490,6504
6492,1776
6492,2637
6495,2689
6498,5405
6499,5465
6500,6072
6502,5157
6502,3780
6504,673
6504,1622
6506,4303
6506,4118
6507,2017
6509,2636
6509,4219
6509,5888
6509,5770
6509,5889
6509,4066
6510,6459
6510,720
6510,1413
6511,1955
6514,5138
6516,2013
6516,5879
6517,2727
6517,5888
6521,162
6521,6149
6521,2463
6521,882
6521,1653
6521,2938
6521,3803
6521,6463
6530,4341
6532,1903
6533,2639
6533,5075
6533,1849
6533,3606
6536,2112
6542,2384
6542,4919
6543,4546
6543,4230
6545,880
6547,1272
6547,1355
6547,170
6547,2251
6550,5853
6550,850
6562,5901
6563,1739
6564,1075
6564,4055
6571,3036
6574,1302
6577,6066
6583,2045
6583,4724
6584,5892
6585,6654
6585,1152
6586,6109
6586,6213
6587,429
6587,2467
6588,2101
6588,4233
6588,5128
6588,7576
6588,5864
6590,1662
6591,6459
6591,720
6591,6510
6592,2772
6593,4573
6593,5726
6593,4734
6593,6017
6594,5898
6594,2647
6599,2916
6600,4262
6602,673
6602,4052
6602,10009
6602,2636
6602,2700
6602,2449
6610,709
6610,1555
6610,1003
6610,2792
6613,1319
6620,909
6620,5145
6620,2872
6625,6497
6626,2988
6627,5295
6628,574
6634,3686
6635,2609
6636,5164
6636,1086
6641,6343
6641,6250
6641,5991
6642,820
6643,5826
6644,2322
6644,2720
6648,6135
6649,5987
6649,4688
6649,6365
6649,6330
6650,6344
6650,4352
6650,7375
6650,3667
6650,4176
6655,6469
6658,2194
6665,3757
6665,3470
6665,3472
6665,2442
6665,5115
6665,7360
6665,3751
6665,4191
6665,5792
6665,4958
6665,4484
6665,6365
6665,3720
6667,5311
6668,5591
6673,2467
6674,4022
6674,1553
6674,5145
6674,2657
6675,211
6677,767
6678,5256
6678,576
6678,3100
6678,2815
6679,1050
6680,2927
6680,4161
6680,3688
6680,963
6680,4067
6680,6495
6681,7428
6681,790
6681,6362
6683,550
6683,2126
6686,901
6687,7410
6689,3698
6689,3891
6692,8010
6692,428
6692,129
6692,744
6694,1104
6694,5295
6694,3923
6694,6627
6695,2529
6695,4326
6695,3800
6695,5661
6696,1773
6696,3258
6697,2776
6697,5019
6697,5061
6697,731
6697,2061
6699,5817
6700,6344
6701,2688
6704,3931
6704,3538
6704,6230
6705,5799
6705,5781
6705,5858
6705,6050
6705,2900
6705,1153
6705,5707
6709,6435
6711,1527
6711,6192
6711,1355
6711,170
6712,307
6712,4313
6716,2464
6717,3595
6719,3202
6721,2099
6721,4484
6721,3511
6721,5575
6721,3101
6721,4971
6721,6365
6721,3662
6721,6095
6721,3472
6722,5792
6722,2638
6723,5311
6725,4456
6727,3058
6727,6051
6727,6222
6727,5771
6727,6423
6729,2099
6729,5373
6729,6217
6729,1972
6730,582
6730,2544
6730,1267
6731,5384
6734,5820
6735,6420
6737,4233
6737,6312
6740,4419
6741,1537
6742,549
6743,3711
6743,3007
6746,700
6749,4647
6749,6480
6749,6251
6752,276
6755,6773
6757,4672
6761,893
6761,1757
6762,6651
6762,5513
6762,4477
6762,6472
6762,5029
6762,2297
6763,2627
6763,4216
6763,588
6763,5591
6763,928
6763,856
6763,5973
6763,6355
6765,9872
6769,2223
6769,6658
6770,6634
6770,1658
6777,2529
6778,885
6779,4615
6779,5433
6781,7168
6781,4864
6783,63
6783,2636
6784,1972
6784,2099
6784,5373
6786,672
6790,6634
6791,4212
6792,4952
6798,4151
6802,3480
6803,6310
6804,98
6804,1948
6805,1972
6807,1314
6808,4369
6813,408
6813,3709
6813,2652
6815,6002
6815,1986
6815,1419
6815,6474
6815,4362
6822,3558
6822,7354
6823,7745
6825,7061
6826,6129
6827,5532
6828,2124
6828,2788
6831,5093
6831,3541
6831,6093
6831,6814
6832,2636
6833,2183
6834,4987
6839,4209
6842,3733
6842,2598
6842,5634
6844,4567
6844,1689
6845,3919
6845,1067
6847,3749
6847,4981
6848,288
6848,4054
6849,4240
6849,5021
6851,1841
6852,4416
6855,3862
6855,2056
6856,6040
6859,7421
6861,1272
6861,5424
6861,3081
6861,4015
6862,3657
6862,9901
6862,1605
6862,4243
6862,5048
6865,6322
6865,3259
6865,4853
6868,1830
6868,5225
6868,5265
6868,1292
6869,3916
6869,5781
6869,1153
6869,5987
6869,793
6870,3189
6873,744
6874,1280
6874,6586
6874,5560
6876,1693
6880,7443
6881,1547
6881,3714
6881,3385
6883,1968
6884,2364
6884,4070
6884,101
6884,4241
6886,445
6890,835
6890,3654
6890,4277
6891,81
6892,1553
6892,5145
6892,2657
6897,670
6898,6155
6898,3146
6899,1355
6899,929
6899,170
6899,2526
6899,4019
6900,4369
6902,4786
6903,6530
6906,1313
6907,918
6909,6508
6909,6342
6910,1067
6912,3921
6914,6288
6915,724
6915,4375
6915,4035
6915,3517
6915,4205
6916,3591
6916,4800
6916,3745
6917,4233
6917,6312
6917,6400
6917,2101
6918,954
6918,5628
6918,793
6918,2900
6918,5858
6918,5748
6918,6334
6918,1848
6922,1267
6927,2249
6928,2258
6928,3101
6928,3511
6928,3662
6928,5410
6928,6095
6928,3943
6930,1361
6930,2788
6931,5748
6931,6334
6931,1848
6931,793
6931,3088
6932,2090
6932,4925
6932,2039
6935,4001
6936,1148
6936,193
6940,6383
6940,3858
6940,397
6943,1372
6944,6657
6944,4289
6946,2782
6946,1773
6946,3258
6947,1962
6947,1309
6947,4663
6947,678
6947,6094
6948,1026
6948,6206
6948,3011
6956,1803
6958,945
6958,4694
6960,2560
6961,6572
6962,5935
6962,1107
6964,3748
6964,3417
6964,4162
6965,2690
6966,854
6968,3347
6970,1139
6974,313
6975,3274
6975,5316
6975,6405
6975,3854
6975,2348
6978,6892
6978,1553
6978,5145
6981,2099
6981,4748
6981,6307
6981,2727
6984,1903
6984,6532
6985,4103
6985,5101
6985,550
6985,605
6989,2742
6994,2878
6994,5820
6994,4017
6994,5671
6994,3526
6995,1826
6997,3454
6998,429
7000,6398
7000,6060
7000,4513
7000,2855
7000,2135
7000,2463
7000,6298
7000,929
7004,3703
7004,6934
7007,1690
7007,3910
7009,1819
7009,5929
7009,5275
7009,5382
7009,4055
7011,1431
7011,2494
7013,4794
7013,973
7013,3207
7017,3448
7018,4433
7020,999
7020,1900
7020,2061
7020,2057
7020,2948
7021,3137
7021,6347
7021,79
7021,6494
7021,3012
7021,4100
7022,6365
7022,2099
7022,4323
7022,3373
7023,6957
7025,1252
7026,2460
7026,6583
7026,4846
7027,2339
7027,4959
7030,5137
7030,545
7031,4694
7032,222
7033,5648
7033,701
7033,5070
7033,6208
7033,2557
7033,6150
7034,3801
7036,5870
7038,6069
7038,4209
7038,6603
7038,6839
7041,7380
7042,228
7048,3501
7051,4233
7051,5864
7052,1594
7052,1540
7052,2577
7052,3132
7056,4649
7061,2330
7061,3415
7064,2220
7064,1170
7065,9917
7065,6314
7065,3462
7067,3240
7067,4513
7067,686
7067,4721
7067,1653
7067,6463
7067,4425
7067,3803
7067,2842
7067,2463
7067,6149
7068,265
7068,4864
7069,1880
7070,5218
7074,615
7075,2752
7078,9944
7078,4433
7079,5974
7079,491
7082,2297
7082,1946
7082,6015
7082,3243
7082,1927
7084,1653
7084,3803
7084,6012
7084,4513
7084,6463
7088,1746
7088,5048
7088,1653
7088,929
7089,4814
7093,4200
7095,6913
7095,2173
7095,6575
7098,3334
7098,1914
7098,5246
7099,4795
7099,2124
7099,1361
7099,2788
7100,6419
7101,6135
7101,4163
7101,1544
7102,5186
7102,5593
7107,3163
7109,4367
7109,5411
7109,5016
7109,5041
7110,1240
7112,2096
7112,3389
7113,5411
7113,1665
7117,3088
7122,4988
7124,593
7126,5075
7126,5809
7126,3118
7126,6120
7126,1204
7131,3928
7134,953
7134,3409
7136,4203
7139,2345
7139,4517
7141,475
7141,4902
7142,3471
7142,2049
7143,3365
7143,5999
7143,6442
7143,1035
7143,377
7143,5296
7143,1653
7143,758
7143,1428
7145,194
7147,1284
7147,5929
7148,3139
7148,4230
7148,1476
7149,2692
7150,5703
7151,1355
7151,170
7152,2598
7152,5935
7152,1090
7154,938
7155,4581
7157,7118
7158,3424
7158,3407
7158,2221
7158,4893
7159,4323
7159,5373
7159,1146
7159,2099
7161,6050
7161,5983
7161,5799
7161,793
7161,5987
7162,5706
7162,4809
7163,2099
7163,6365
7164,6676
7168,4864
7169,6169
7169,601
7169,5610
7170,5978
7175,4383
7175,216
7177,2434
7178,1033
7180,1868
7180,6672
7180,6004
7180,7396
7182,5679
7182,4055
7182,4590
7183,3498
7184,4272
7184,5495
7185,5794
7185,6090
7185,697
7185,2447
7186,6463
7186,2938
7186,4513
7186,1653
7186,4721
7186,3803
7186,2842
7186,2463
7186,4711
7188,5693
7190,663
7193,2560
7197,6203
7201,7639
7202,2063
7202,5703
7203,1397
7203,1718
7203,2919
7203,6243
7206,4077
7206,6368
7206,5185
7206,4548
7206,3016
7207,7484
7207,6584
7208,6365
7211,2400
7211,5682
7214,3137
7214,1740
7214,1425
7216,2303
7219,3567
7221,6364
7221,5748
7221,5994
7221,5730
7222,3387
7225,3064
7225,1359
7225,6346
7226,7061
7228,4029
7228,1901
7228,6011
7230,5550
7231,10009
7231,4012
7231,780
7232,2598
7232,7152
7235,6442
7235,1814
7235,929
7235,1653
7236,223
7236,4536
7242,4451
7243,2909
7244,1089
7244,3154
7244,1282
7245,6129
7245,1728
7247,239
7247,5672
7247,2098
7247,546
7247,3932
7247,3964
7247,3293
7247,457
7247,3273
7247,5496
7247,5464
7247,2814
7247,4207
7247,4890
7249,159
7249,6778
7249,3910
7250,6960
7251,4667
7251,335
7251,6695
7251,6554
7256,2390
7256,659
7256,3756
7257,6194
7259,1576
7260,5657
7262,7069
7262,1880
7263,3483
7264,4995
7264,1547
7264,4255
7271,5230
7271,6595
7271,4109
7272,1090
7272,7693
7273,1624
7273,3293
7275,169
7276,5278
7276,3806
7278,5693
7279,2529
7279,5001
7280,5646
7281,7026
7281,6583
7282,2611
7282,3169
7282,6269
7283,15
7284,4047
7284,5183
7285,5232
7286,9841
7286,7043
7287,7866
7287,5346
7287,1993
7287,5023
7287,6405
7287,3854
7287,5316
7288,5820
7289,1594
7289,3592
7292,3318
7293,403
7293,2339
7293,4853
7293,7485
7296,2154
7296,4035
7296,4538
7297,2529
7298,3993
7298,3575
7300,6101
7301,506
7301,226
7301,227
7302,4712
7306,1553
7309,65
7314,5792
7315,1804
7315,5439
7317,2517
7317,2036
7317,5673
7318,2043
7318,3148
7318,3674
7324,3189
7324,2729
7324,6757
7328,5331
7333,4233
7334,759
7335,2306
7335,3767
7335,7356
7335,3049
7335,3485
7341,739
7341,1068
7344,4791
7344,5143
7344,1826
7344,3289
7344,3923
7344,3179
7353,3347
7354,3558
7356,3767
7357,5179
7358,4536
7360,4912
7360,880
7360,6365
7360,3470
7361,7042
7361,8110
7363,1057
7364,3745
7369,4278
7369,2090
7370,4853
7370,3259
7371,1397
7375,3667
7378,2938
7378,5455
7380,6365
7380,2099
7380,5295
7381,6200
7382,4118
7382,6506
7382,6425
7382,1412
7382,2394
7383,3585
7383,6929
7388,1515
7391,7315
7391,1804
7392,6312
7394,2154
7395,3449
7396,6004
7396,5620
7403,22
7404,5799
7404,793
7404,1217
7404,1153
7404,539
7405,5709
7406,3583
7411,5550
7412,5110
7413,6194
7413,3284
7414,3600
7416,5964
7417,2315
7418,1220
7422,3415
7426,3135
7430,4402
7430,1440
7431,6085
7433,5929
7436,6365
7436,1235
7437,5239
7438,6695
7438,5661
7438,4163
7438,2529
7438,7475
7438,3564
7446,2409
7447,4158
7447,4233
7447,6588
7447,3061
7447,6400
7447,2521
7450,15
7452,6646
7453,3088
7454,654
7454,2431
7457,218
7457,4348
7457,6409
7458,994
7458,1168
7460,4567
7463,3502
7464,170
7464,6763
7464,5208
7465,1184
7465,569
7466,582
7466,1739
7466,1267
7469,1190
7469,4875
7469,5978
7469,1957
7471,7258
7472,7499
7474,6917
7474,6737
7474,5362
7474,6400
7474,4158
7474,4233
7474,6588
7475,3564
7475,5661
7475,4326
7475,2529
7475,6695
7479,5394
7481,3167
7481,4352
7483,5082
7483,6296
7483,2810
7485,2339
7485,403
7485,6743
7485,4853
7485,4898
7486,1022
7486,5247
7491,9917
7492,5511
7494,1718
7495,271
7498,4246
7498,2017
7498,957
7499,6918
7499,1349
7500,7061
7500,4158
7502,6812
7502,4945
7502,7290
7503,3389
7505,2742
7506,2339
7506,7485
7506,7712
7506,403
7507,750
7508,6387
7508,6358
7509,123
7510,2346
7511,1718
7512,5941
7512,4091
7513,3595
7514,4405
7514,6865
7514,7370
7514,6322
7514,4212
7514,3064
7515,5929
7515,5382
7515,4055
7515,5679
7520,2586
7521,1658
7523,4212
7525,4565
7526,2189
7526,3472
7526,1438
7526,3757
7526,4323
7526,3967
7530,7244
7530,4237
7533,4191
7533,2258
7535,5824
7536,7210
7538,4341
7538,6530
7539,6495
7539,4161
7540,7061
7541,4323
7541,3757
7541,1708
7541,5799
7541,5987
7541,6365
7542,3704
7543,7890
7544,7321
7545,2246
7545,2475
7545,6071
7545,4287
7545,124
7545,2773
7548,631
7549,7289
7550,625
7552,1746
7553,6342
7553,1927
7553,4128
7554,4896
7554,7245
7556,6409
7557,936
7559,1780
7559,2118
7559,4419
7560,6973
7561,6243
7561,5870
7561,4520
7566,6737
7566,4233
7566,6312
7568,6542
7568,6279
7568,7794
7568,2945
7569,3985
7569,2875
7569,3787
7570,2559
7575,971
7575,2523
7576,2529
7576,3088
7577,752
7578,4820
7582,6098
7587,3720
7587,3470
7587,4958
7587,7360
7587,3472
7587,6365
7587,3751
7587,4191
7587,7651
7587,3757
7587,6665
7587,7680
7587,3685
7587,2442
7587,3373
7588,5220
7588,2741
7589,657
7594,5027
7594,1540
7594,451
7595,6129
7595,3720
7595,3373
7595,3923
7595,2554
7595,3472
7597,2297
7597,6472
7597,4477
7597,5440
7598,3537
7599,2774
7600,1739
7600,2544
7601,3172
7603,7020
7603,2061
7603,2057
7604,1379
7604,6918
7605,4505
7605,2099
7606,5057
7606,2039
7607,5375
7608,3139
7608,1288
7608,7148
7608,1476
7611,1962
7612,5792
7613,5464
7616,5870
7617,1746
7617,2101
7617,7235
7618,5073
7619,3583
7619,5637
7620,2331
7620,6233
7623,5001
7627,3424
7627,1053
7627,3407
7627,4893
7628,1681
7628,5102
7629,5651
7630,3598
7631,7004
7631,5984
7634,3820
7635,4118
7635,7382
7635,1412
7635,6506
7635,2394
7638,6475
7641,2127
7641,396
7642,4256
7642,4594
7642,7738
7642,2529
7642,4784
7643,6996
7643,1606
7644,5378
7644,874
7644,1390
7644,2687
7646,2292
7648,4220
7648,6585
7648,5015
7648,1152
7649,6881
7649,3692
7649,5437
7650,1047
7651,6365
7651,3751
7651,4912
7651,2189
7651,3470
7651,7360
7651,3472
7651,4958
7651,2442
7651,3373
7651,3720
7651,3757
7652,1579
7652,2729
7652,2249
7654,170
7654,6478
7654,9896
7654,929
7654,1700
7654,4395
7655,469
7655,4835
7655,3077
7656,2720
7659,4718
7661,4937
7662,3645
7662,2574
7666,7934
7667,6661
7668,5426
7668,4424
7668,1546
7668,5272
7670,2858
7673,5378
7677,4127
7678,7633
7679,4757
7680,3751
7680,3470
7680,4484
7680,4958
7680,7360
7680,6365
7680,3472
7680,4191
7680,7651
7680,3757
7680,6665
7680,3720
7680,3373
7680,7587
7680,2442
7682,7139
7683,6480
7684,4611
7687,7425
7689,5792
7692,4520
7692,4759
7694,2781
7696,1374
7698,4109
7698,5489
7699,4646
7699,2529
7699,2024
7701,335
7701,889
7701,6908
7704,2394
7704,6506
7704,1412
7704,4118
7705,896
7706,403
7706,7485
7706,2339
7707,3958
7709,3189
7710,5866
7710,5346
7712,403
7712,2339
7712,1707
7713,6043
7713,1181
7713,5247
7713,6426
7715,3061
7715,5814
7715,6603
7716,6483
7716,2485
7716,1806
7716,2687
7716,5363
7717,6484
7717,990
7717,5461
7719,6399
7720,2247
7720,4629
7721,3363
7721,2324
7726,4179
7730,4369
7733,5994
7737,3931
7737,2395
7737,6704
7738,4326
7738,6267
7738,4784
7738,5969
7739,7391
7739,7315
7739,1804
7742,6593
7743,7519
7744,3691
7746,4372
7746,312
7746,2097
7746,1355
7746,5999
7746,170
7746,1272
7755,2904
7755,3669
7755,6671
7757,6151
7757,3375
7760,1361
7760,2124
7763,5036
7763,2639
7763,3624
7763,6309
7766,5853
7767,3738
7768,218
7770,7447
7770,4158
7770,5864
7770,4233
7770,6400
7770,5362
7772,1074
7773,6667
7774,5803
7775,5387
7776,7158
7776,4893
7776,3424
7776,6106
7777,6918
7777,4876
7778,4853
7778,5804
7778,403
7779,5518
7779,3753
7780,4137
7780,6633
7784,490
7784,1046
7784,3847
7785,7326
7785,6946
7787,1860
7787,3386
7787,3867
7787,930
7787,1485
7788,6075
7789,4416
7790,4905
7791,2312
7791,4607
7791,2336
7791,990
7791,80
7791,733
7792,6420
7792,6140
7794,6645
7794,6279
7799,1789
7800,2308
7801,4879
7801,4341
7801,2078
7801,7538
7803,6365
7803,2099
7803,4176
7806,5958
7807,5968
7808,4306
7809,5449
7810,8082
7810,7828
7810,4590
7812,7016
7813,2175
7813,1343
7815,7313
7817,5346
7817,3854
7817,5316
7817,7287
7817,5023
7819,5041
7819,7109
7819,5016
7821,736
7821,6338
7822,7764
7823,1047
7826,2101
7826,7203
7826,1718
7826,1701
7826,1721
7826,1345
7826,5870
7826,2227
7826,982
7827,2370
7828,4590
7828,8082
7830,6151
7832,4525
7834,1461
7837,1972
7839,2052
7840,3372
7841,117
7842,4728
7842,1181
7842,5247
7842,6426
7844,6918
7845,5866
7847,5138
7847,6514
7853,7745
7854,3041
7855,1085
7855,6384
7856,10006
7859,2197
7860,5105
7860,1373
7860,125
7861,5453
7861,3490
7862,3063
7863,2500
7863,2499
7864,4349
7866,1901
7866,5316
7866,5278
7866,3854
7866,4551
7866,6405
7870,4565
7870,5001
7874,5346
7874,5023
7874,7710
7874,5866
7874,3443
7876,5882
7876,7901
7876,1969
7876,1074
7880,5110
7882,1445
7882,5001
7884,5909
7884,4397
7888,6447
7888,1395
7888,6551
7889,1964
7891,5105
7896,2729
7896,3145
7897,1880
7898,3923
7902,3705
7902,8206
7902,4163
7905,2243
7905,5392
7905,2513
7906,2685
7907,7716
7908,2414
7911,3207
7911,6111
7911,7013
7911,973
7912,4853
7912,2501
7912,1338
7912,3019
7914,7499
7915,982
7915,4419
7915,2598
7915,3733
7915,2648
7915,3064
7915,637
7915,1857
7915,3368
7915,2145
7915,294
7915,1352
7918,4013
7918,5230
7920,5551
7927,1281
7929,1057
7929,2157
7929,7363
7930,3042
7933,1148
7935,1880
7936,973
7936,3207
7936,6111
7938,147
7939,866
7939,2424
7940,5145
7940,6567
7940,6126
7940,2872
7940,2520
7941,3413
7942,1842
7943,846
7943,2779
7946,2598
7946,1701
7946,1345
7946,4937
7946,2145
7948,4624
7949,1131
7949,1888
7949,3189
7949,2973
7949,4798
7950,4713
7950,2544
7950,1618
7950,6563
7950,582
7950,1739
7951,1889
7951,6309
7951,7126
7951,1204
7951,6120
7951,5036
7951,3182
7952,2315
7953,7350
7956,7635
7956,4303
7956,1875
7957,4893
7957,5849
7957,2574
7957,6960
7957,7627
7957,1079
7959,2124
7959,1361
7959,6828
7959,6930
7960,5163
7962,3923
7962,3912
7962,1763
7962,4012
7962,2129
7962,2449
7963,6393
7963,5538
7963,2032
7963,3115
7964,449
7964,7712
7964,1212
7964,7485
7964,2339
7964,403
7964,5804
7965,7152
7965,7225
7965,1090
7965,5538
7965,294
7965,7232
7965,3064
7965,5935
7965,2598
7966,7201
7966,563
7966,7639
7967,7802
7969,2421
7971,6438
7972,4204
7972,3517
7978,4798
7978,3317
7978,2973
7978,1259
7980,7505
7980,5382
7980,5275
7980,7147
7980,2824
7980,6815
7981,3970
7981,4547
7982,7889
7983,70
7984,3674
7984,4452
7984,5097
7984,2635
7985,2776
7985,5019
7985,731
7985,6697
7985,2061
7987,5145
7991,829
7991,7294
7991,6480
7992,5144
7993,3901
7993,1484
7993,111
7993,2270
7994,9909
7995,3829
7995,2577
7995,1594
7998,1171
7999,2296
7999,3490
8000,1739
8000,531
8000,1618
8002,223
8002,7236
8005,4855
8005,3555
8005,3522
8006,3610
8008,1896
8008,3831
8010,6692
8014,5286
8016,907
8016,2593
8016,4884
8019,4200
8019,628
8020,3450
8020,5553
8020,7308
8021,6401
8021,4405
8021,248
8022,6472
8024,1742
8024,6809
8025,999
8027,1947
8028,5555
8028,1854
8028,3868
8028,1264
8030,1893
8031,2664
8032,5029
8033,7673
8034,6406
8037,1658
8038,4625
8038,1652
8039,7030
8039,6138
8039,5957
8040,6031
8042,6200
8042,7381
8042,1665
8044,7086
8044,117
8048,2664
8048,8181
8049,7617
8049,6343
8049,7235
8050,6135
8052,5817
8053,6495
8053,3688
8053,7539
8053,4161
8055,1184
8055,7465
8058,4936
8059,5620
8059,7180
8059,1868
8059,6006
8059,1393
8059,300
8059,7396
8062,4994
8063,5802
8063,535
8064,997
8064,4954
8064,5101
8064,550
8064,1963
8066,4962
8071,2933
8071,899
8071,2309
8073,7175
8073,5629
8075,4294
8075,5329
8076,319
8076,5745
8076,7213
8077,4776
8078,3589
8078,5296
8078,6478
8078,3365
8078,4395
8080,2099
8082,4590
8082,2216
8082,5577
8083,1444
8083,603
8084,4698
8084,6015
8084,343
8084,1961
8085,1310
8086,4052
8086,2449
8090,2510
8091,4718
8092,7100
8092,5405
8092,2482
8092,2872
8092,7431
8092,6419
8094,4208
8095,2626
8096,6438
8097,1691
8097,1434
8099,5820
8099,5896
8099,2878
8099,5671
8099,2653
8099,1111
8101,5978
8101,4591
8103,7682
8103,7139
8105,3779
8105,3689
8106,6188
8107,6731
8107,5424
8108,557
8108,5782
8108,1629
8110,7401
8111,4505
8113,9935
8114,521
8114,6964
8115,6931
8115,7499
8115,5748
8118,6765
8119,693
8120,5991
8121,4103
8121,6403
8122,3088
8122,1747
8122,6046
8123,5293
8124,3073
8125,6804
8128,2113
8128,2529
8128,4935
8128,3564
8130,6517
8131,6256
8133,6812
8133,994
8135,7403
8135,22
8136,1150
8137,4171
8137,4698
8137,1929
8140,1714
8140,6849
8142,1419
8144,1707
8144,7712
8145,2946
8146,5425
8146,6102
8148,3575
8148,2589
8148,6363
8148,7298
8152,5760
8152,5448
8152,1100
8152,1409
8155,1929
8155,4698
8156,5426
8156,1899
8156,3674
8156,7668
8156,5272
8156,2635
8156,2768
8156,4424
8157,5036
8157,2889
8157,2639
8157,600
8159,7866
8159,7287
8159,5023
8159,3463
8159,6975
8159,2667
8162,5001
8162,1445
8162,6641
8162,2101
8163,6710
8164,6393
8169,1546
8169,7668
8169,5864
8169,4424
8171,7225
8171,3064
8171,6346
8172,2529
8172,2024
8172,7279
8175,1184
8176,772
8176,7210
8176,7326
8177,6907
8177,874
8178,2783
8179,5894
8180,5783
8180,6523
8180,7415
8181,3616
8181,4501
8181,6442
8181,5601
8181,2664
8182,2544
8182,1739
8182,5635
8183,7673
8183,5378
8183,3455
8183,1982
8184,6575
8184,1031
8184,6837
8185,7965
8185,7225
8187,601
8190,1853
8191,905
8196,572
8198,3586
8198,3979
8198,5870
8199,5330
8199,5296
8199,4341
8199,6903
8199,6530
8199,7538
8199,2078
8205,4931
8205,5671
8206,6154
8206,4163
8208,3188
8208,3984
8208,1482
8212,403
8212,2339
8212,4959
8212,3549
8212,2374
8214,5675
8214,1185
8214,5121
8214,1982
8214,2104
8214,3419
8215,3851
8217,6331
8219,4035
8219,3517
8219,5864
8221,3630
8223,5145
8225,2102
8227,6647
8227,5555
8227,5531
8229,682
8229,2056
8229,6855
8229,3862
8230,7258
8231,6387
8231,7508
8234,7699
8234,4646
8235,462
8235,3788
8236,2253
8238,5463
8238,2700
8238,61
8238,3923
8238,10009
8238,2599
8238,6129
8238,5183
8241,6274
8242,4711
8242,5296
8242,4246
8245,2990
8245,5242
8247,7550
8247,625
8248,6623
8249,1481
8249,2491
8250,2670
8252,2099
8253,2145
8253,294
8253,7946
8253,1701
8254,1579
8254,3191
8254,398
8255,550
8255,1963
8255,8064
8255,997
8257,7869
8258,4850
8258,2247
8259,6290
8260,4176
8260,6365
8260,6356
8260,2088
8260,2099
8260,3373
8260,1702
8262,5672
8262,4890
8262,457
8262,3293
8262,5989
8263,1446
8265,7095
8265,2173
8265,6575
8265,753
8265,6913
8267,2229
8267,5979
8267,128
8270,3060
8270,1247
8271,6304
8273,1434
8275,2849
8277,2706
8278,3298
8278,8005
8278,2989
8279,7759
8280,3202
8280,2865
8281,918
8282,1982
8282,7673
8284,6322
8284,3064
8284,4405
8285,1436
8285,6588
8285,5814
8285,4204
8285,4233
8285,6737
8285,7566
8287,3032
8287,3958
8288,7339
8289,4672
8289,4361
8289,849
8289,2729
8290,5213
8292,3260
8294,6212
8297,2900
8298,2733
8299,7575
8299,3187
8299,2523
8300,1020
8302,262
8302,333
8304,606
8304,6981
8304,7837
8304,5990
8304,6338
8306,4587
8307,7641
8307,7679
8307,2774
8309,1230
8309,7639
8310,5697
8310,5063
8311,7668
8311,5116
8311,4424
8311,1546
8311,5272
8312,2491
8317,6371
8319,515
8319,4173
8319,6062
8319,8438
8319,5468
8321,6806
8322,3561
8324,5930
8324,2632
8324,2290
8325,2544
8325,1739
8326,5278
8326,5316
8326,7287
8326,3854
8326,5023
8326,7817
8326,6405
8326,5137
8326,4294
8326,7710
8327,2682
8327,4344
8327,1278
8328,6191
8329,5020
8330,885
8330,3910
8332,1806
8332,7716
8332,2485
8332,7907
8334,2636
8334,2432
8335,2770
8335,3056
8335,4970
8346,6391
8346,5963
8346,4369
8346,3583
8346,5637
8346,6618
8348,7845
8349,550
8349,6683
8349,4954
8349,1963
8350,2030
8351,9919
8353,3953
8353,3224
8353,4207
8355,4805
8355,1723
8355,5838
8357,5001
8358,1293
8359,1090
8359,6472
8361,3697
8361,7403
8363,7160
8364,7959
8364,7767
8364,6930
8366,4023
8366,4255
8366,7272
8366,6881
8366,242
8367,3703
8368,4759
8368,3417
8368,5950
8369,4375
8371,4800
8371,3306
8371,3745
8371,7523
8371,5252
8371,4695
8371,4362
8373,3668
8373,1865
8375,6028
8376,6765
8378,1011
8378,2054
8378,2717
8378,1545
8379,2008
8379,3196
8379,2786
8379,6209
8385,7524
8386,286
8390,2101
8390,6641
8391,6996
8391,4337
8391,2623
8392,3483
8399,2593
8399,4884
8400,5023
8401,7819
8402,1017
8403,3172
8404,1880
8406,38
8407,7375
8407,4352
8409,5035
8410,7519
8410,1579
8411,2567
8411,5325
8412,8019
8412,8091
8412,4200
8412,4718
8413,1329
8414,4246
8414,2017
8414,1968
8415,3801
8416,1576
8416,1271
8417,7273
8417,5883
8417,4304
8417,528
8421,7990
8421,2939
8422,2355
8422,5606
8422,2452
8424,5768
8424,4458
8429,2159
8429,3796
8432,7302
8433,1442
8433,6219
8434,7823
8434,7650
8435,4698
8435,389
8436,1739
8436,582
8437,6852
8437,7308
8438,515
8438,1855
8438,4173
8438,5468
8438,6062
8438,8319
8439,1739
8439,2544
8439,6563
8441,4356
8441,5239
8442,6717
8442,3595
8442,542
8442,7513
8444,4525
8445,7293
8445,7964
8445,7485
8445,403
8447,2671
8448,3862
8448,3373
8449,1739
8449,6808
8450,7997
8454,1599
8455,1288
8455,3139
8455,7608
8455,1476
8455,7148
8458,3054
8459,2791
8459,5272
8459,5814
8459,3061
8459,1069
8461,4052
8461,411
8461,2636
8461,2432
8461,208
8461,2712
8462,7576
8463,5601
8463,5999
8463,2938
8463,8603
8463,6463
8464,7610
8465,6764
8465,6461
8465,3346
8466,2011
8467,8121
8467,8255
8467,3356
8467,4103
8467,8064
8467,1963
8468,7460
8468,1689
8468,4567
8471,211
8471,6675
8475,2599
8475,6129
8475,6155
8475,4791
8476,1843
8476,2007
8478,8285
8478,6737
8478,6312
8478,6588
8478,7566
8479,7897
8479,1880
8479,7262
8479,7069
8480,6170
8481,84
8483,7997
8484,7521
8484,4212
8484,2030
8486,7073
8488,4536
8488,7236
8488,223
8488,7367
8489,5239
8490,211
8490,3917
8490,3123
8491,3853
8491,6251
8491,9912
8491,3286
8497,1461
8497,7834
8498,2217
8499,76
8503,1697
8504,316
8506,7324
8510,2194
8515,3207
8515,7936
8515,5702
8515,4794
8515,7013
8515,973
8515,5303
8515,6111
8515,7911
8516,2402
8520,7296
8521,5852
8522,2451
8522,2965
8523,7515
8523,7147
8523,6341
8523,5679
8523,5929
8523,3249
8523,4099
8524,4069
8526,5278
8527,897
8528,5029
8528,4477
8528,5440
8528,3190
8528,6472
8528,8359
8529,7834
8531,6334
8532,5264
8533,829
8533,4057
8533,5956
8533,7294
8533,7991
8533,4183
8533,4615
8536,1927
8537,4781
8538,7969
8540,1712
8540,4345
8541,62
8543,7588
8546,5027
8546,1540
8546,7594
8546,73
8546,451
8546,6256
8546,5404
8548,4461
8548,5517
8548,1231
8548,8930
8548,5356
8548,2542
8552,2857
8552,1287
8555,1338
8558,5463
8558,3923
8558,2599
8558,2700
8558,1826
8559,3032
8559,8956
8560,6512
8560,2361
8560,8093
8560,4851
8560,2637
8561,15
8561,7283
8563,7456
8564,7799
8567,6918
8567,7777
8567,4876
8570,2429
8574,1184
8574,7465
8576,1899
8576,2637
8576,2521
8576,3536
8577,8125
8578,2247
8578,7720
8578,4850
8578,4629
8580,1022
8582,4721
8582,6463
8582,1653
8582,4513
8582,686
8582,95
8583,5643
8585,6457
8585,7041
8585,307
8585,1286
8585,4573
8585,7380
8585,4310
8585,7717
8585,3439
8585,6868
8586,6272
8586,3322
8586,4411
8586,7463
8589,1943
8589,4231
8589,7977
8589,2387
8591,2017
8592,1338
8593,6400
8593,7617
8593,4233
8596,6225
8596,332
8599,6472
8599,5029
8599,5440
8599,4477
8602,9912
8602,2146
8603,7397
8603,5601
8604,9938
8609,3405
8609,1900
8612,6391
8612,4369
8614,7612
8614,1728
8614,5792
8614,7041
8617,3088
8617,3958
8618,5129
8618,3886
8618,1587
8621,4864
8621,4875
8624,5035
8628,7002
8628,1110
8628,6727
8629,5755
8629,6334
8630,7965
8630,1857
8630,7152
8632,5864
8634,9928
8635,2717
8636,2754
8636,118
8636,4498
8636,7000
8636,6552
8636,5186
8636,3286
8636,7127
8637,7515
8637,7810
8637,7980
8637,1819
8637,7009
8637,5929
8637,5275
8639,6434
8639,318
8642,930
8642,3386
8642,7787
8643,4212
8644,5856
8644,6115
8644,6153
8645,5870
8645,2555
8648,1461
8648,7834
8649,6567
8649,9919
8649,8351
8651,1474
8652,1953
8652,5426
8653,7302
8654,7373
8654,4735
8655,1288
8656,8332
8656,7716
8657,4369
8659,768
8659,4764
8660,849
8660,4361
8660,2729
8660,4918
8660,1721
8660,7826
8660,1234
8660,5511
8662,2297
8662,6472
8662,6833
8665,6574
8667,6870
8668,2238
8669,4498
8669,1433
8670,4848
8670,3825
8672,5968
8672,5157
8672,6298
8672,1271
8673,7942
8673,2892
8674,3703
8674,1839
8674,1754
8675,660
8675,5122
8676,5468
8676,4173
8676,6062
8678,4217
8679,1533
8680,7061
8680,7226
8680,6825
8682,5346
8683,3286
8683,7294
8683,7991
8683,8533
8683,6480
8683,829
8684,3120
8684,5477
8684,4709
8684,4625
8685,4433
8686,3139
8686,7608
8686,8455
8686,7148
8686,1476
8687,7401
8688,6454
8688,2643
8690,5167
8693,4559
8694,7548
8695,5555
8695,5531
8695,8028
8695,1854
8696,4352
8696,547
8696,3967
8698,6461
8698,8314
8700,5304
8700,2865
8706,7651
8706,4191
8706,6365
8706,3757
8706,2099
8706,4843
8708,3530
8708,997
8710,3687
8711,5886
8711,7308
8714,6551
8714,1395
8714,7888
8714,6447
8714,2075
8716,1421
8716,127
8716,4935
8716,2529
8716,5661
8718,7830
8718,4024
8719,8795
8720,6346
8720,5560
8720,1359
8720,3064
8720,7225
8722,5550
8725,6910
8727,7610
8729,8156
8729,8270
8729,7668
8729,8169
8729,8311
8729,4424
8730,6409
8730,7556
8730,218
8732,3088
8734,2652
8737,400
8738,8267
8740,1172
8740,3532
8741,980
8741,5319
8741,3591
8741,2806
8747,6808
8747,6563
8747,1267
8747,5635
8747,7466
8753,432
8753,6588
8753,584
8753,7576
8755,6106
8755,5822
8755,3407
8755,2221
8755,3424
8755,7627
8755,7158
8755,4893
8755,7776
8757,4032
8757,1875
8757,1967
8759,8023
8759,9916
8761,8242
8761,4246
8761,5296
8763,8363
8764,5864
8766,4853
8768,7991
8768,7965
8768,7294
8771,1546
8771,8156
8773,7655
8773,4835
8773,2681
8774,5029
8774,6731
8776,8097
8776,8150
8776,1434
8776,1691
8777,8669
8777,2754
8777,8367
8777,5186
8778,1175
8778,2445
8778,2774
8779,970
8779,4887
8781,5070
8781,7033
8782,1859
8783,6983
8784,3493
8784,6363
8784,2589
8784,508
8785,7178
8787,6570
8788,1315
8788,3705
8788,5584
8790,3863
8791,2791
8791,4638
8791,3053
8791,1965
8792,6840
8792,1656
8793,3517
8793,5916
8794,2012
8795,1784
8796,8649
8796,2657
8797,7867
8799,3757
8799,3472
8799,6365
8799,4191
8799,2099
8799,5183
8800,111
8801,5978
8801,8101
8802,649
8804,6356
8804,4176
8804,7803
8804,8921
8804,864
8804,6365
8804,2099
8806,6365
8806,7360
8806,5115
8806,4958
8806,3720
8806,3373
8806,2442
8806,7587
8806,3470
8806,3751
8806,7680
8806,3757
8806,3472
8806,7651
8806,4191
8806,6665
8806,2189
8807,5601
8807,3853
8807,6251
8807,3286
8809,8569
8809,330
8810,7665
8814,4853
8818,4050
8818,588
8820,7424
8821,8093
8821,6512
8821,2361
8821,2637
8821,4851
8821,4937
8821,8560
8823,373
8823,6800
8823,1224
8823,386
8824,7620
8824,7717
8824,6484
8824,8516
8825,874
8825,72
8825,7644
8827,8195
8827,994
8827,2718
8827,1957
8828,2709
8828,6088
8828,1247
8828,7422
8828,1754
8830,7120
8831,6338
8831,6190
8831,8304
8834,945
8834,4694
8834,6958
8836,5776
8837,8118
8837,6765
8838,5814
8838,5864
8838,3674
8838,1436
8838,3061
8838,2855
8838,1345
8838,1069
8838,1271
8838,6298
8839,7502
8839,5978
8839,7170
8840,5464
8840,4490
8840,1473
8841,5028
8844,664
8844,6517
8844,8277
8844,974
8845,7299
8847,2966
8847,1290
8851,7768
8851,6070
8851,6409
8852,1329
8852,457
8852,3293
8852,5672
8852,2814
8852,8262
8852,4890
8853,2774
8854,6782
8854,6696
8854,4825
8854,6603
8854,102
8854,503
8854,2725
8854,6946
8854,1773
8855,4320
8856,6976
8858,5036
8858,8157
8859,6597
8859,5811
8859,4489
8859,1841
8861,6262
8864,3357
8865,5538
8865,5346
8865,3443
8867,576
8868,6129
8868,6155
8868,7163
8868,1826
8868,4791
8868,3923
8868,3289
8868,4943
8871,8125
8871,8656
8872,2255
8872,2262
8872,2779
8872,5082
8875,7679
8875,836
8876,8391
8876,4800
8877,1234
8877,5511
8877,2551
8877,8660
8877,911
8878,8063
8878,1189
8878,7737
8879,4082
8880,5926
8881,4911
8881,766
8882,3289
8883,1672
8884,4022
8884,3955
8884,8649
8885,4318
8885,3356
8885,7061
8885,2830
8885,997
8887,8296
8887,1216
8888,8533
8888,7991
8888,8683
8888,7294
8889,2344
8889,3895
8890,8243
8891,6983
8893,1754
8893,1369
8893,4415
8893,3286
8893,7088
8894,3343
8894,3233
8894,8489
8894,5239
8894,4632
8895,7891
8896,3372
8897,5036
8897,6309
8897,7126
8897,7951
8897,3182
8897,1889
8900,8591
8900,5526
8900,9928
8902,4342
8909,7710
8909,5346
8909,3313
8909,7998
8909,5866
8910,7774
8912,8153
8914,1718
8915,6804
8915,5835
8915,2791
8916,8428
8918,6504
8918,411
8918,2636
8918,10009
8918,208
8919,2928
8919,1343
8920,5726
8920,3025
8921,6365
8921,2099
8924,2662
8924,7417
8924,2315
8924,5630
8925,8636
8925,7991
8925,8533
8925,8683
8925,829
8925,7294
8928,4801
8929,7951
8929,5607
8929,5194
8929,3378
8929,3245
8929,2156
8929,3606
8929,6309
8929,7126
8929,600
8929,3118
8930,6149
8931,6530
8931,4395
8931,3365
8931,6903
8931,4299
8931,3589
8932,1069
8932,2635
8932,8311
8932,8459
8932,4452
8932,3061
8932,7984
8932,7668
8932,8156
8932,2768
8932,1436
8935,8304
8935,1351
8935,2336
8935,1335
8937,3475
8937,6235
8937,3888
8940,5075
8944,5926
8945,7139
8945,4369
8946,3352
8946,6323
8947,6512
8947,2361
8947,8560
8948,8328
8951,1880
8951,8479
8951,7262
8952,4608
8955,8226
8955,8253
8955,2598
8955,7946
8955,1090
8958,5958
8961,3403
8962,3693
8963,6782
8963,2725
8963,503
8963,8854
8963,102
8963,6603
8963,4698
8963,4825
8964,7697
8966,5637
8966,3583
8967,6365
8968,7190
8968,5306
8968,935
8968,5888
8970,7542
8972,5964
8972,9243
8972,7416
8973,3853
8975,7554
8975,4896
8976,7295
8976,5119
8977,3088
8978,3994
8979,7521
8979,8484
8980,934
8981,4538
8981,7641
8981,7296
8982,4405
8982,6922
8982,6322
8984,6236
8985,885
8986,1196
8987,6897
8987,1946
8988,4992
8988,782
8988,2410
8989,4820
8989,423
8989,7578
8993,964
8993,7199
8993,8810
8995,3373
8997,3060
9001,3060
9001,8618
9003,3240
9003,8084
9003,8137
9003,8155
9003,4698
9004,8839
9004,3123
9005,711
9005,8248
9007,8155
9007,389
9007,4698
9007,8084
9007,8137
9007,8435
9009,7578
9010,2006
9011,732
9013,6667
9013,7773
9013,5311
9015,3937
9017,7499
9017,793
9017,6364
9017,1349
9017,6918
9017,954
9018,1841
9018,5130
9018,4355
9018,3493
9020,8658
9023,6808
9023,7600
9023,2544
9023,8182
9023,1739
9025,4865
9025,2101
9025,153
9025,8382
9026,793
9028,2550
9029,8200
9030,3588
9030,1804
9030,1097
9030,6221
9030,7315
9030,5305
9030,4242
9031,2461
9034,6672
9034,2537
9034,6379
9036,3573
9037,9863
9037,5994
9040,2024
9041,2101
9041,5200
9042,4693
9042,2493
9042,450
9042,2749
9044,6644
9044,2720
9045,1718
9045,8198
9046,3191
9049,5256
9049,6678
9050,4075
9052,8158
9052,8146
9054,6633
9055,909
9056,8282
9056,5378
9056,8543
9056,7673
9056,8033
9056,7588
9057,1686
9057,794
9060,2516
9067,4010
9067,4581
9068,398
9069,8854
9069,102
9069,6603
9069,4825
9069,8963
9069,503
9069,6946
9069,6782
9069,2725
9069,6696
9070,8156
9070,1899
9070,5814
9070,8932
9070,3061
9070,1069
9070,2635
9070,2768
9070,8459
9070,4452
9070,1436
9071,2529
9071,5835
9071,8172
9072,629
9073,9019
9074,8214
9074,9009
9076,2919
9076,1384
9076,6374
9078,1308
9082,4018
9083,8537
9083,4781
9083,4368
9085,8080
9086,6913
9086,841
9086,8560
9086,7617
9086,4705
9086,7439
9087,4537
9087,3501
9087,2250
9088,6426
9088,4192
9088,5182
9088,7713
9089,4840
9090,6057
9092,5126
9092,6069
9093,7578
9093,2014
9095,2043
9095,4171
9095,2637
9095,5272
9095,8576
9098,176
9098,4607
9098,4561
9099,7503
9099,3389
9101,7608
9101,8686
9103,8093
9103,8821
9103,526
9103,2043
9106,8410
9108,3858
9109,3541
9109,5511
9109,2729
9109,7324
9110,7082
9110,489
9110,5607
9110,3715
9111,3869
9111,1586
9113,1653
9113,95
9114,8524
9114,2516
9116,6038
9117,6135
9119,5208
9119,4212
9121,1978
9124,2099
9125,8188
9131,7232
9131,7965
9133,2503
9133,7673
9133,5378
9133,4854
9133,6308
9133,8282
9133,2091
9134,1587
9134,1549
9134,5272
9134,1471
9134,3785
9134,1281
9134,3886
9138,5973
9138,4774
9141,6365
9141,2099
9142,8685
9144,8953
9146,6791
9147,6359
9147,6472
9147,6651
9148,5973
9148,5591
9155,7980
9155,8082
9155,5577
9155,7147
9156,5820
9158,3939
9159,5376
9160,4695
9160,8391
9160,3306
9160,8371
9160,7523
9160,5252
9161,1448
9162,7794
9162,6542
9162,7568
9162,2945
9162,6279
9165,9912
9165,6091
9165,2101
9165,7770
9165,2043
9166,4794
9166,5303
9166,973
9166,7013
9166,3207
9166,5702
9168,2367
9168,169
9169,8859
9169,9018
9170,7341
9170,739
9170,7426
9170,2620
9172,5386
9172,918
9172,5028
9172,8841
9173,4219
9173,8918
9173,2221
9174,4405
9174,1618
9174,2544
9174,8021
9174,8439
9175,6634
9176,7796
9176,3051
9176,1372
9176,2303
9177,9073
9178,8183
9178,7673
9178,2503
9178,6308
9178,9133
9179,6443
9181,6506
9181,1412
9181,7704
9181,4118
9181,7635
9181,4176
9185,6450
9185,7428
9186,2814
9186,6316
9191,2099
9191,8080
9192,9000
9193,5935
9193,6472
9193,7232
9193,1090
9193,8662
9193,8359
9193,7272
9194,3373
9194,6365
9197,6996
9198,8561
9199,6138
9199,841
9201,492
9203,5863
9206,6129
9206,3923
9207,2589
9207,1579
9207,3189
9207,7652
9207,2249
9210,7009
9210,5275
9212,5378
9212,8214
9212,7673
9217,8166
9217,3698
9219,4201
9219,3132
9219,1594
9219,6256
9219,1540
9220,8067
9220,3289
9220,3923
9221,7992
9223,180
9223,4536
9224,42
9225,5943
9228,8555
9228,2501
9228,4853
9228,7912
9230,8282
9230,5378
9230,7673
9230,8183
9231,5304
9231,3202
9236,8440
9238,4998
9239,8637
9239,8082
9239,4099
9239,3249
9239,5929
9239,7147
9239,7515
9239,2824
9239,5679
9239,5577
9239,51
9241,3144
9241,3098
9242,1498
9243,7416
9243,5964
9243,8972
9244,6907
9244,8177
9246,426
9247,712
9248,2617
9248,622
9249,3490
9249,3709
9249,3403
9249,2026
9250,7180
9250,6672
9250,9034
9250,8059
9250,5620
9250,3325
9250,7396
9252,3868
9253,2555
9253,7561
9253,8037
9255,546
9257,7083
9257,5042
9259,1739
9259,8439
9259,8436
9262,8834
9262,4694
9262,945
9262,6958
9265,5019
9265,6697
9265,731
9268,7100
9268,5145
9274,7667
9274,6661
9276,6452
9276,884
9276,1677
9280,6854
9286,8192
9293,5019
9293,7464
9293,2061
9294,292
9295,8662
9295,5935
9295,6074
9295,7597
9299,4348
9299,8730
9300,904
9300,1052
9300,3566
9306,767
9307,3078
9310,9018
9310,9169
9310,8859
9310,4738
9310,6597
9310,4355
9316,9140
9317,8515
9317,1547
9317,8888
9317,3692
9318,2078
9318,5330
9318,95
9318,4341
9320,1837
9320,3148
9321,8690
9321,5329
9325,814
9326,6749
9326,6731
9326,6251
9326,8491
9326,1746
9326,1959
9326,8807
9329,3955
9329,6567
9332,8761
9332,8242
9333,6694
9333,3757
9333,6649
9333,6338
9333,6017
9333,494
9335,6155
9336,3088
9337,4170
9341,3757
9341,2099
9341,8706
9341,4191
9341,6365
9344,6563
9344,1618
9344,5360
9344,531
9349,8872
9349,2779
9350,8086
9351,5215
9351,7989
9351,7699
9351,2496
9352,1369
9352,885
9352,3910
9353,5973
9353,856
9353,2627
9353,6763
9353,8651
9353,6355
9353,5522
9353,4216
9353,6134
9354,6588
9354,8285
9354,5973
9354,4233
9354,278
9357,7612
9357,8614
9360,8183
9360,2014
9360,5378
9360,3455
9361,792
9362,8559
9362,3032
9364,4694
9364,945
9365,7888
9365,4624
9365,8714
9365,7948
9366,2258
9366,2099
9368,8652
9368,3616
9368,8603
9368,5601
9371,1927
9371,3942
9371,7553
9374,3663
9374,4297
9375,8727
9380,469
9380,2681
9380,4303
9381,9934
9381,1338
9382,1092
9383,3359
9383,3807
9384,3777
9385,9063
9385,6135
9386,8652
9386,222
9387,6403
9390,8297
9390,1848
9392,4937
9393,1540
9395,1421
9395,2529
9396,493
9397,6709
9400,3833
9401,6220
9403,4317
9404,6749
9404,5296
9406,9030
9406,7315
9406,1804
9406,7391
9407,1090
9407,8253
9407,7946
9409,7968
9411,8181
9411,2664
9411,8888
9411,4171
9411,8031
9415,6966
9418,355
9418,6635
9422,5554
9423,8351
9423,8649
9425,2763
9427,689
9427,4158
9427,4233
9427,7770
9427,6400
9427,7447
9427,5362
9427,6588
9429,5581
9430,8632
9430,4233
9432,8839
9432,211
9433,3555
9434,8551
9435,3397
9435,7673
9435,8282
9436,384
9437,7801
9437,3365
9437,7538
9437,1653
9437,4395
9438,6517
9442,8373
9444,7908
9446,9198
9447,3895
9448,3682
9448,7515
9448,8082
9448,5577
9448,8914
9449,1124
9450,186
9451,5220
9451,7673
9451,8282
9457,3789
9457,1691
9457,8776
9457,8097
9458,278
9458,5550
9458,8722
9459,193
9460,6472
9460,4477
9460,8599
9460,9295
9463,5148
9463,3112
9463,3912
9463,3923
9463,6129
9464,9183
9465,3583
9466,8860
9466,6024
9466,3517
9466,8667
9472,2718
9473,4212
9473,7523
9473,8579
9474,8761
9474,9241
9475,4352
9476,8957
9479,8209
9480,6087
9480,1962
9480,25
9480,6094
9481,818
9481,3862
9481,926
9481,682
9484,8993
9484,380
9486,7344
9486,3289
9486,8868
9486,773
9486,3923
9486,880
9486,5143
9486,6105
9486,1826
9486,1763
9486,1728
9487,8143
9487,534
9487,6009
9488,9266
9489,7130
9491,5828
9492,6051
9492,9198
9492,6423
9493,8579
9493,9355
9493,9105
9494,8391
9494,3745
9494,8876
9494,4316
9494,1053
9494,4800
9495,1728
9498,7803
9498,4176
9500,2514
9500,2718
9501,6304
9502,1962
9503,6712
9503,1477
9503,307
9504,2864
9509,2679
9509,668
9509,3147
9509,2194
9512,6918
9512,7604
9513,3130
9513,4091
9514,3705
9517,5479
9517,6777
9518,7093
9518,4055
9519,7900
9520,4482
9520,3450
9520,8020
9520,6996
9521,7480
9522,2791
9522,4937
9522,3286
9522,1549
9522,2637
9526,2017
9526,7498
9526,4246
9527,9214
9529,7699
9529,4646
9532,2459
9533,569
9533,8574
9533,8055
9534,7249
9534,8001
9536,7009
9536,353
9537,4212
9537,2470
9537,5711
9537,2030
9537,4520
9537,6000
9537,4065
9539,474
9540,3684
9540,9454
9543,8856
9544,9186
9546,9079
9548,8847
9548,2966
9549,4148
9549,472
9550,7193
9550,6960
9550,7250
9550,7627
9550,7957
9552,474
9553,6271
9553,7416
9553,654
9553,5964
9553,9243
9553,8972
9554,1516
9557,7088
9557,6463
9557,4513
9557,3803
9557,4341
9561,7673
9561,9034
9561,9009
9561,7588
9561,8543
9562,3191
9562,5205
9562,9046
9563,3002
9563,5863
9563,2877
9563,271
9563,2732
9565,9319
9565,7283
9566,4688
9570,2990
9570,5268
9574,7795
9575,2417
9577,8962
9578,6737
9579,7640
9582,3757
9582,4807
9582,1826
9583,4950
9583,4054
9583,6848
9583,5954
9583,5890
9585,2880
9586,6854
9586,9280
9587,7815
9587,7313
9589,8486
9593,5893
9593,1333
9594,8960
9596,5777
9598,2599
9598,1728
9599,2422
9600,8390
9600,4233
9600,2529
9602,1941
9605,6828
9605,1361
9605,2124
9606,9086
9606,1447
9607,6562
9607,7022
9607,4710
9608,5275
9608,7009
9608,7515
9608,5929
9608,5382
9609,1859
9609,8782
9609,2538
9610,8506
9611,8449
9611,8982
9611,9174
9613,4477
9613,5029
9613,2183
9613,5458
9614,182
9614,7361
9615,736
9615,6338
9615,1104
9615,8935
9617,3392
9617,8377
9620,4905
9620,154
9620,7790
9621,217
9624,5635
9624,8182
9626,9174
9626,8982
9626,248
9626,6322
9626,4405
9627,3726
9628,6155
9628,3289
9628,5852
9628,1826
9631,2030
9633,4538
9633,7972
9633,7641
9633,8438
9633,3849
9633,8644
9633,515
9633,8981
9633,8761
9633,8319
9633,1200
9633,734
9635,9165
9636,9178
9636,6308
9636,7673
9636,9133
9636,2503
9637,7934
9643,8931
9643,6530
9643,6903
9645,2229
9648,7439
9649,7313
9650,9430
9650,8632
9650,6463
9651,9228
9651,7293
9651,8212
9651,7912
9651,2501
9651,8144
9651,8445
9654,6808
9654,9012
9656,5817
9656,8705
9656,6699
9657,2990
9657,8245
9658,2744
9659,5906
9659,4774
9659,7464
9659,928
9660,9633
9661,7192
9662,8122
9662,3088
9663,9146
9664,5870
9664,7561
9666,9178
9666,9617
9666,3392
9666,8377
9667,7538
9667,1953
9667,3286
9668,5820
9669,3421
9670,245
9671,9176
9672,1309
9672,4663
9672,5560
9672,678
9673,9330
9677,4935
9677,2529
9677,1421
9680,8761
9680,8242
9683,7683
9683,7305
9683,4759
9683,1980
9684,8594
9685,1661
9686,9027
9690,8724
9690,2099
9690,3289
9692,4566
9693,4477
9693,5935
9693,5458
9693,7597
9693,9613
9693,2183
9693,5029
9694,9445
9695,7641
9695,7296
9696,8425
9697,7899
9698,4103
9698,398
9698,7036
9699,3722
9699,1244
9699,7932
9699,829
9700,8415
9700,3801
9701,5048
9701,2941
9701,4495
9702,3722
9702,3243
9702,829
9703,6661
9705,4295
9706,3923
9706,2129
9706,1763
9707,3475
9707,6996
9707,149
9707,7308
9707,8711
9707,7643
9707,4482
9707,8020
9708,7847
9708,6322
9710,351
9712,6617
9712,5637
9712,4369
9713,9590
9714,8604
9715,1841
9715,3334
9715,6851
9715,3067
9715,4489
9717,8489
9718,8711
9718,4809
9718,9520
9718,8060
9718,4482
9718,7308
9720,3256
9720,4416
9723,6656
9724,6379
9725,7302
9725,7276
9725,1740
9725,9157
9725,2579
9725,7815
9725,9587
9725,5063
9726,7600
9726,6922
9726,2544
9726,8982
9730,3373
9732,8095
9732,9939
9733,7597
9733,1571
9733,3243
9733,1916
9733,4477
9733,9180
9733,6472
9733,6651
9733,8528
9733,8359
9733,5093
9734,2529
9734,335
9734,7475
9734,7701
9734,9600
9734,889
9735,8214
9735,9617
9735,7673
9735,8183
9735,9360
9735,9230
9737,2043
9737,9117
9737,2008
9737,5563
9740,7302
9745,9611
9745,1739
9745,582
9745,8436
9745,8449
9745,6730
9745,8439
9745,1267
9745,9023
9745,2544
9747,1691
9747,8097
9747,8776
9750,9899
9750,8686
9750,3139
9750,7608
9752,5730
9752,7747
9752,1095
9754,8776
9754,8097
9754,9747
9755,1171
9755,9596
9755,3594
9755,5346
9755,4294
9756,6624
9760,2379
9760,4079
9761,5010
9763,9555
9765,3843
9765,2779
9767,9124
9769,7083
9769,7100
9770,6996
9771,183
9771,8153
9771,2253
9772,4352
9772,6344
9773,5511
9773,2729
9773,7641
9773,6000
9773,6458
9773,8877
9773,7659
9773,6757
9773,2551
9773,4918
9773,4361
9773,7492
9773,1234
9773,1166
9773,1596
9773,8660
9773,7324
9773,849
9775,7383
9775,1448
9777,6338
9777,8935
9777,9048
9777,5143
9779,4398
9779,5447
9779,4191
9779,6365
9780,2831
9780,5095
9782,6404
9782,1782
9782,2194
9782,8280
9784,1090
9784,8359
9784,2297
9784,8528
9784,6367
9784,6015
9784,8662
9784,6651
9786,8478
9786,7576
9786,6588
9786,8390
9786,4233
9786,2101
9787,1740
9787,5137
9787,5023
9787,7866
9787,6405
9787,8664
9787,6975
9787,4551
9788,2544
9788,9344
9788,9174
9789,1718
9789,9939
9789,8877
9789,5511
9789,8095
9789,7324
9789,7610
9792,6115
9792,5093
9792,1071
9792,8644
9792,6153
9792,7927
9793,7576
9797,5978
9797,4849
9797,7042
9797,2099
9798,2165
9798,1335
9799,7887
9800,9662
9800,3088
9801,7366
9802,4672
9804,7113
9804,9241
9804,8617
9804,5016
9805,9405
9805,5935
9805,6472
9805,2183
9805,5029
9805,4477
9808,7199
9808,9484
9808,964
9808,8993
9809,7022
9809,3373
9816,9430
9816,8632
9816,9650
9817,2099
9820,8652
9820,2030
9821,1460
9822,9262
9822,945
9822,8834
9822,9364
9822,4694
9823,8810
9823,9484
9823,380
9824,2104
9824,9636
9824,8282
9824,9435
9824,6379
9824,53
9824,7673
9824,9056
9824,9451
9824,1982
9826,6628
9828,2693
9830,7576
9831,6996
9832,7553
9832,7642
9832,1927
9833,999
9833,8025
9834,3646
9836,9228
9836,2501
9836,7912
9836,9651
9836,8445
9836,7964
9836,8144
9836,779
9836,7293
9837,9642
9838,7308
9838,6852
9839,1313
9839,9083
9841,7286
9843,4286
9844,1176
9844,5048
9844,2399
9848,9146
9849,3765
9849,3352
9849,4849
9849,8946
9853,9203
9853,9438
9853,245
9853,5863
9854,6174
9854,2169
9855,2773
9857,788
9858,3300
9859,4217
9860,6915
9863,5994
9865,1272
9865,534
9865,1650
9865,6009
9865,8143
9865,8491
9865,3081
9865,222
9866,8131
9866,7111
9868,9676
9869,8951
9869,1880
9869,7262
9870,8640
9870,7833
9870,1313
9870,7934
9873,4835
9873,469
9874,3191
9874,5205
9874,9562
9876,3133
9876,3645
9877,2848
9877,6695
9877,7699
9877,5661
9877,7475
9877,2024
9877,2529
9878,5001
9878,5522
9878,4344
9879,8683
9879,9943
9879,7294
9879,9794
9879,8768
9879,8940
9879,9701
9879,829
9879,8533
9879,6480
9879,8925
9879,7991
9880,864
9880,8260
9880,3373
9880,4176
9880,6356
9880,5792
9881,3881
9884,9651
9884,9228
9884,2501
9884,8144
9884,7912
9884,8212
9884,779
9885,9179
9885,6443
9885,2490
9886,3722
9886,829
9888,6365
9888,494
9889,5958
9889,4344
9889,2096
9889,103
9889,6155
9890,5351
9890,2670
9891,2884
9893,9268
9893,5145
9893,6567
9893,6126
9893,7940
9894,192
9894,4323
9895,4067
9895,963
9895,3688
9895,3075
9896,4395
9896,1700
9896,170
9896,4299
9896,929
9897,5820
9897,6734
9899,3139
9899,8686
9899,8455
9899,7608
9901,4243
9901,1605
9902,9118
9903,8095
9903,9848
9903,9146
9905,7387
9906,3862
9906,1181
9906,7713
9910,9515
9912,6240
9912,2301
9913,5525
9913,1978
9916,5501
9916,2886
9918,3796
9918,7314
9920,2874
9920,3715
9922,2244
9922,1829
9923,1653
9923,6463
9923,4513
9923,2476
9923,4299
9923,95
9924,8787
9925,3032
9926,6567
9929,9762
9930,6274
9931,6904
9934,1338
9934,9931
9936,9928
9939,8095
9939,6791
9939,7496
9939,7521
9939,8037
9939,3958
9939,1658
9941,6175
9942,6175
9942,9941
9943,9794
9943,2664
9943,9411
9943,8940
9944,4433
9946,7704
9946,9803
9947,9045
9947,8410
9948,9110
9948,8948
9949,8599
9950,9507
9951,9411
9951,8888
9951,8777
9951,4171
9953,9306
9953,5243
9953,767
9953,9149
9954,8787
9955,7631
9955,6295
9955,1320
9957,9705
9959,7964
9959,8445
9959,9836
9959,9651
9959,2501
9959,8144
9960,4405
9960,9788
9960,9174
9960,9611
9960,8021
9960,2544
9960,8982
9960,1618
9960,6322
9960,9406
9962,4369
9962,9012
9962,9654
9962,6808
9963,7894
9963,5886
9963,9796
9965,9754
9965,1691
9965,9747
9965,1434
9965,8097
9966,8608
9967,7580
9968,9794
9968,4631
9968,1679
9971,5425
9971,1248
9972,4954
9972,3411
9972,470
9972,5852
9972,5363
9972,550
9974,8862
9976,7682
9976,7139
9976,4369
9978,2761
9980,7139
9980,7682
9981,5610
9981,5744
9981,3707
9982,3858
9982,8773
9982,9785
9983,2877
9983,271
9986,1385
9989,3158
9989,1969
9989,5717
9989,4038
9989,5882
9989,6616
9990,9385
9990,9063
9991,3902
9992,9251
9993,6502
9993,8883
9993,2560
9993,522
9993,5839
9993,5157
9995,9761
9996,1226
9997,7936
9997,973
9997,8515
9998,9807
9998,8049
9998,5584
9998,7439
9998,2101
9999,9326
9999,8662
9999,8807
9999,5601
10001,8300
10002,9256
10003,8028
10003,1264
10003,5555
10004,9922
10004,7659
10004,9376
10005,7313
10005,9787
10005,7866
10005,9649
10005,4638
10005,9725
10007,183
10007,5581
10009,4052
